800.000000	0.638810
801.132000	2.564665
802.264000	5.031477
803.396000	7.869747
804.528000	11.214622
805.660000	15.387235
806.792000	20.391843
807.924000	26.233250
809.056000	32.912994
810.188000	40.216638
811.320000	48.344608
812.452000	57.505242
813.584000	67.376584
814.716000	77.474006
815.848000	87.189554
816.980000	95.801407
818.112000	103.996263
819.244000	112.603018
820.376000	121.946347
821.508000	132.424789
822.640000	144.522757
823.772000	158.415547
824.904000	174.933797
826.036000	194.819649
827.168000	217.427176
828.300000	241.904493
829.432000	267.224573
830.564000	292.154157
831.696000	316.437688
832.828000	340.133611
833.960000	362.612521
835.092000	383.094587
836.224000	400.894372
837.356000	417.197540
838.488000	431.724218
839.620000	441.875984
840.752000	444.515168
841.884000	441.368666
843.016000	438.245769
844.148000	433.654491
845.280000	416.288539
846.412000	394.238357
847.544000	368.380686
848.676000	339.888543
849.808000	309.716318
850.940000	278.547231
852.072000	247.941335
853.204000	219.162366
854.336000	192.288563
855.468000	168.464863
856.600000	145.400287
857.732000	121.821800
858.864000	100.099993
859.996000	83.467456
861.128000	70.119193
862.260000	55.897743
863.392000	38.699105
864.524000	27.861987
865.656000	19.992613
866.788000	15.730950
867.920000	11.759709
869.052000	8.678605
870.184000	6.756646
871.316000	8.918867
872.448000	11.546321
873.580000	14.407234
874.712000	17.483373
875.844000	22.496403
876.976000	27.640160
878.108000	32.549313
879.240000	36.629480
880.372000	38.656597
881.504000	39.836263
882.636000	40.419192
883.768000	40.644923
884.900000	40.167879
886.032000	39.560939
887.164000	38.794608
888.296000	38.252693
889.428000	38.364665
890.560000	39.047752
891.692000	40.169825
892.824000	41.456188
893.956000	42.869196
895.088000	44.538736
896.220000	46.708790
897.352000	49.107070
898.484000	51.756376
899.616000	54.802140
900.748000	58.102551
901.880000	61.228259
903.012000	63.922816
904.144000	68.476008
905.276000	71.491592
906.408000	75.336151
907.540000	79.804849
908.672000	85.059158
909.804000	89.623690
910.936000	93.187404
912.068000	95.259402
913.200000	97.521512
914.332000	100.422382
915.464000	103.750370
916.596000	106.792939
917.728000	109.652709
918.860000	112.431131
919.992000	115.106207
921.124000	117.582069
922.256000	119.593596
923.388000	121.232745
924.520000	122.584528
925.652000	123.604293
926.784000	124.085020
927.916000	124.003180
929.048000	123.532634
930.180000	122.689898
931.312000	121.125326
932.444000	118.686883
933.576000	116.133285
934.708000	113.540622
935.840000	109.852688
936.972000	105.629092
938.104000	100.871122
939.236000	95.593374
940.368000	89.910195
941.500000	83.982088
942.632000	77.890794
943.764000	71.759669
944.896000	65.649357
946.028000	59.534690
947.160000	53.578853
948.292000	48.012102
949.424000	42.732247
950.556000	37.557946
951.688000	32.298010
952.820000	26.732630
953.952000	21.239288
955.084000	16.773688
956.216000	13.068376
957.348000	11.221781
958.480000	10.347479
959.612000	11.105582
960.744000	12.783153
961.876000	17.587472
963.008000	24.828919
964.140000	34.318766
965.272000	44.642069
966.404000	54.646083
967.536000	64.755986
968.668000	75.438182
969.800000	87.258136
970.932000	101.160918
972.064000	115.577805
973.196000	128.448980
974.328000	140.100571
975.460000	150.117762
976.592000	158.264537
977.724000	162.799148
978.856000	165.515585
979.988000	166.080809
981.120000	166.639083
982.252000	167.242354
983.384000	169.717011
984.516000	193.914160
985.648000	235.425920
986.780000	274.918958
987.912000	309.583763
989.044000	328.684820
990.176000	347.453214
991.308000	360.392485
992.440000	363.128139
993.572000	373.262539
994.704000	385.888731
995.836000	409.798913
996.968000	486.284845
998.100000	675.640948
999.232000	901.075793
1000.364000	1337.494128
1001.496000	1383.902225
1002.628000	1383.902225
1003.760000	1383.902225
1004.892000	1306.041034
1006.024000	775.772101
1007.156000	464.328732
1008.288000	263.642977
1009.420000	166.275499
1010.552000	131.271227
1011.684000	106.364685
1012.816000	106.364685
1013.948000	105.929202
1015.080000	107.657779
1016.212000	119.123544
1017.344000	132.262620
1018.476000	147.664300
1019.608000	167.710005
1020.740000	218.970659
1021.872000	308.713422
1023.004000	412.733043
1024.136000	519.711615
1025.268000	619.973038
1026.400000	707.468849
1027.532000	776.373676
1028.664000	837.506557
1029.796000	889.718018
1030.928000	892.854899
1032.060000	892.854899
1033.192000	892.854899
1034.324000	812.286741
1035.456000	622.358566
1036.588000	454.042681
1037.720000	331.886290
1038.852000	302.999014
1039.984000	288.570499
1041.116000	280.768123
1042.248000	261.603403
1043.380000	253.070097
1044.512000	232.111095
1045.644000	179.328016
1046.776000	179.227628
1047.908000	179.227628
1049.040000	179.227628
1050.172000	191.092641
1051.304000	192.345467
1052.436000	192.345467
1053.568000	192.345467
1054.700000	180.571407
1055.832000	157.731586
1056.964000	138.071514
1058.096000	121.850276
1059.228000	106.791530
1060.360000	94.594871
1061.492000	87.521235
1062.624000	84.030193
1063.756000	82.649313
1064.888000	83.285174
1066.020000	84.067551
1067.152000	85.156231
1068.284000	86.380260
1069.416000	87.678279
1070.548000	88.600740
1071.680000	89.081770
1072.812000	89.206788
1073.944000	89.151417
1075.076000	88.859212
1076.208000	88.569846
1077.340000	88.164425
1078.472000	87.383209
1079.604000	86.068554
1080.736000	84.407916
1081.868000	82.485331
1083.000000	80.156318
1084.132000	77.508000
1085.264000	74.614757
1086.396000	71.554282
1087.528000	68.455689
1088.660000	65.435152
1089.792000	62.473163
1090.924000	59.515508
1092.056000	56.543464
1093.188000	53.317206
1094.320000	50.158799
1095.452000	47.143515
1096.584000	44.308879
1097.716000	41.270054
1098.848000	38.433287
1099.980000	35.557613
1101.112000	32.654672
1102.244000	29.830707
1103.376000	27.350942
1104.508000	24.999380
1105.640000	22.747030
1106.772000	20.551405
1107.904000	18.485840
1109.036000	16.682145
1110.168000	15.341350
1111.300000	14.281240
1112.432000	13.703109
1113.564000	13.620497
1114.696000	14.503349
1115.828000	15.865127
1116.960000	17.501380
1118.092000	19.887461
1119.224000	22.981590
1120.356000	26.156622
1121.488000	29.151083
1122.620000	32.367847
1123.752000	36.608890
1124.884000	39.659042
1126.016000	41.958155
1127.148000	46.769857
1128.280000	51.781259
1129.412000	57.698493
1130.544000	59.734440
1131.676000	61.840762
1132.808000	63.127352
1133.940000	64.083921
1135.072000	63.746647
1136.204000	64.023212
1137.336000	63.863458
1138.468000	63.019959
1139.600000	61.746428
1140.732000	60.253655
1141.864000	58.509288
1142.996000	56.725782
1144.128000	54.837779
1145.260000	52.817504
1146.392000	50.636707
1147.524000	48.270167
1148.656000	45.721156
1149.788000	42.970591
1150.920000	40.079293
1152.052000	37.062053
1153.184000	33.991130
1154.316000	30.857178
1155.448000	27.680947
1156.580000	24.636772
1157.712000	21.669359
1158.844000	18.733266
1159.976000	15.828337
1161.108000	12.846083
1162.240000	9.917998
1163.372000	7.246236
1164.504000	5.035449
1165.636000	3.216537
1166.768000	1.853585
1167.900000	1.219230
1169.032000	1.075415
1170.164000	1.778040
1171.296000	2.837629
1172.428000	4.841966
1173.560000	7.389531
1174.692000	10.387748
1175.824000	13.714999
1176.956000	17.395124
1178.088000	21.355967
1179.220000	25.511754
1180.352000	29.736133
1181.484000	33.826124
1182.616000	37.724979
1183.748000	41.347081
1184.880000	44.490945
1186.012000	47.016601
1187.144000	47.899510
1188.276000	48.008570
1189.408000	48.084647
1190.540000	47.809053
1191.672000	46.097304
1192.804000	43.882127
1193.936000	41.288527
1195.068000	38.337312
1196.200000	35.145503
1197.332000	31.836973
1198.464000	28.511137
1199.596000	25.284497
1200.728000	22.177320
1201.860000	19.199471
1202.992000	16.516470
1204.124000	14.280121
1205.256000	13.039928
1206.388000	12.230177
1207.520000	11.940155
1208.652000	12.381439
1209.784000	13.302952
1210.916000	14.632030
1212.048000	16.248090
1213.180000	18.027103
1214.312000	20.011532
1215.444000	22.006108
1216.576000	23.972603
1217.708000	25.887902
1218.840000	27.775719
1219.972000	29.667915
1221.104000	31.476878
1222.236000	33.098857
1223.368000	34.381025
1224.500000	35.123068
1225.632000	35.835363
1226.764000	36.576145
1227.896000	36.824674
1229.028000	36.908144
1230.160000	36.797467
1231.292000	36.592207
1232.424000	36.393645
1233.556000	36.299629
1234.688000	36.273546
1235.820000	36.243525
1236.952000	36.168757
1238.084000	35.987698
1239.216000	35.698358
1240.348000	35.121401
1241.480000	34.595989
1242.612000	34.127860
1243.744000	33.437134
1244.876000	32.612985
1246.008000	31.933007
1247.140000	31.258638
1248.272000	30.594011
1249.404000	29.925233
1250.536000	29.428456
1251.668000	28.968719
1252.800000	28.634330
1253.932000	28.582818
1255.064000	28.843742
1256.196000	29.771077
1257.328000	30.884901
1258.460000	32.296118
1259.592000	33.967031
1260.724000	36.861054
1261.856000	40.428995
1262.988000	44.543671
1264.120000	49.089225
1265.252000	53.916013
1266.384000	58.973628
1267.516000	64.231320
1268.648000	69.594316
1269.780000	74.967849
1270.912000	80.279803
1272.044000	85.435672
1273.176000	90.413663
1274.308000	95.187550
1275.440000	99.639053
1276.572000	103.646972
1277.704000	107.092292
1278.836000	109.850474
1279.968000	111.844579
1281.100000	113.104882
1282.232000	113.864119
1283.364000	114.539203
1284.496000	114.821914
1285.628000	114.549214
1286.760000	113.939606
1287.892000	113.019242
1289.024000	111.848655
1290.156000	110.410580
1291.288000	108.681165
1292.420000	106.624012
1293.552000	104.272504
1294.684000	101.516093
1295.816000	98.648256
1296.948000	95.709131
1298.080000	92.613665
1299.212000	89.216081
1300.344000	85.676252
1301.476000	82.033701
1302.608000	78.281480
1303.740000	74.409711
1304.872000	70.408294
1306.004000	66.260707
1307.136000	62.025583
1308.268000	57.778554
1309.400000	53.573647
1310.532000	49.457696
1311.664000	45.488214
1312.796000	41.700405
1313.928000	38.170165
1315.060000	34.962357
1316.192000	32.067320
1317.324000	29.452582
1318.456000	27.080655
1319.588000	24.901197
1320.720000	22.924839
1321.852000	21.174272
1322.984000	19.643594
1324.116000	18.345053
1325.248000	17.270834
1326.380000	16.294058
1327.512000	15.418326
1328.644000	14.723043
1329.776000	14.169899
1330.908000	13.673538
1332.040000	13.175366
1333.172000	12.606098
1334.304000	12.073683
1335.436000	11.644791
1336.568000	11.191950
1337.700000	10.892327
1338.832000	10.761284
1339.964000	10.835305
1341.096000	11.377970
1342.228000	12.074722
1343.360000	13.431756
1344.492000	16.575325
1345.624000	18.297492
1346.756000	21.843254
1347.888000	24.629454
1349.020000	27.208619
1350.152000	30.322667
1351.284000	33.990023
1352.416000	38.614759
1353.548000	43.379473
1354.680000	48.464610
1355.812000	53.961445
1356.944000	59.740214
1358.076000	65.703359
1359.208000	71.716010
1360.340000	77.635557
1361.472000	83.563251
1362.604000	89.665174
1363.736000	96.013153
1364.868000	102.701533
1366.000000	109.794907
1367.132000	117.283619
1368.264000	125.301003
1369.396000	133.946688
1370.528000	143.089106
1371.660000	152.564710
1372.792000	162.123041
1373.924000	171.468080
1375.056000	180.592691
1376.188000	189.516395
1377.320000	198.197919
1378.452000	206.607383
1379.584000	214.568865
1380.716000	221.530731
1381.848000	226.929752
1382.980000	229.399248
1384.112000	233.794092
1385.244000	235.026948
1386.376000	234.934216
1387.508000	232.855753
1388.640000	229.955234
1389.772000	222.671001
1390.904000	214.994304
1392.036000	203.096610
1393.168000	194.053069
1394.300000	185.235277
1395.432000	174.830385
1396.564000	162.901699
1397.696000	150.146944
1398.828000	137.673575
1399.960000	125.355424
1401.092000	113.175782
1402.224000	101.491043
1403.356000	90.594773
1404.488000	80.833616
1405.620000	72.526668
1406.752000	65.639534
1407.884000	60.171303
1409.016000	55.491605
1410.148000	51.489877
1411.280000	48.541043
1412.412000	46.371937
1413.544000	44.825522
1414.676000	43.736523
1415.808000	43.049818
1416.940000	42.821114
1418.072000	43.016907
1419.204000	43.291867
1420.336000	43.598726
1421.468000	44.263136
1422.600000	44.526753
1423.732000	44.975984
1424.864000	45.476518
1425.996000	46.054331
1427.128000	46.193621
1428.260000	46.568672
1429.392000	47.040848
1430.524000	47.647459
1431.656000	48.402864
1432.788000	49.330955
1433.920000	50.501277
1435.052000	51.992684
1436.184000	53.823434
1437.316000	56.000882
1438.448000	58.972656
1439.580000	62.218319
1440.712000	65.782181
1441.844000	69.717207
1442.976000	74.651806
1444.108000	80.032062
1445.240000	85.696282
1446.372000	91.453442
1447.504000	97.263809
1448.636000	103.112180
1449.768000	108.920735
1450.900000	114.626537
1452.032000	120.078740
1453.164000	125.086493
1454.296000	129.572984
1455.428000	133.463784
1456.560000	136.424910
1457.692000	137.837149
1458.824000	137.882292
1459.956000	137.847326
1461.088000	137.303106
1462.220000	135.353502
1463.352000	131.834300
1464.484000	127.612482
1465.616000	122.756183
1466.748000	117.301597
1467.880000	111.384627
1469.012000	105.139761
1470.144000	98.673805
1471.276000	92.124543
1472.408000	85.529974
1473.540000	78.929673
1474.672000	72.495083
1475.804000	66.396172
1476.936000	60.817759
1478.068000	55.942939
1479.200000	51.725784
1480.332000	48.132910
1481.464000	45.042145
1482.596000	42.195392
1483.728000	39.563844
1484.860000	37.389701
1485.992000	35.429096
1487.124000	33.594477
1488.256000	31.857397
1489.388000	30.200572
1490.520000	28.637933
1491.652000	27.203297
1492.784000	25.821155
1493.916000	24.228633
1495.048000	22.681043
1496.180000	21.155030
1497.312000	19.478121
1498.444000	17.631496
1499.576000	15.761346
1500.708000	13.921032
1501.840000	12.145137
1502.972000	10.448583
1504.104000	8.887953
1505.236000	7.466336
1506.368000	6.202458
1507.500000	5.093199
1508.632000	4.146249
1509.764000	3.348525
1510.896000	2.775359
1512.028000	2.401242
1513.160000	2.212825
1514.292000	2.246675
1515.424000	2.505381
1516.556000	2.855219
1517.688000	3.233518
1518.820000	3.691847
1519.952000	4.201785
1521.084000	4.725345
1522.216000	5.283337
1523.348000	5.840482
1524.480000	6.376069
1525.612000	6.896139
1526.744000	7.400312
1527.876000	7.885646
1529.008000	8.338432
1530.140000	8.738709
1531.272000	9.115096
1532.404000	9.459074
1533.536000	9.850561
1534.668000	10.141229
1535.800000	10.411782
1536.932000	10.676896
1538.064000	10.906469
1539.196000	10.915042
1540.328000	10.817391
1541.460000	10.618391
1542.592000	10.276582
1543.724000	9.835891
1544.856000	9.376965
1545.988000	8.928388
1547.120000	8.376688
1548.252000	7.781037
1549.384000	7.092909
1550.516000	6.045084
1551.648000	4.688122
1552.780000	3.360829
1553.912000	2.181103
1555.044000	1.203514
1556.176000	0.497718
1557.308000	0.529050
1558.440000	0.881786
1559.572000	1.500719
1560.704000	2.410279
1561.836000	4.064190
1562.968000	5.710394
1564.100000	7.006940
1565.232000	8.136272
1566.364000	9.285229
1567.496000	10.365038
1568.628000	11.360874
1569.760000	12.564710
1570.892000	13.539071
1572.024000	15.208953
1573.156000	18.561502
1574.288000	21.188919
1575.420000	21.188919
1576.552000	21.188919
1577.684000	19.974095
1578.816000	14.752835
1579.948000	8.622664
1581.080000	4.239454
1582.212000	0.707892
1583.344000	0.295014
1584.476000	0.186982
1585.608000	0.186982
1586.740000	0.186982
1587.872000	9.424112
1589.004000	22.075036
1590.136000	34.525525
1591.268000	51.125666
1592.400000	63.456794
1593.532000	66.835495
1594.664000	66.835495
1595.796000	66.751314
1596.928000	46.283144
1598.060000	0.000000
1599.192000	0.000000
