800.000000	0.000000
801.132000	2.597475
802.264000	5.801089
803.396000	9.436052
804.528000	13.649161
805.660000	18.607353
806.792000	24.362101
807.924000	31.001359
809.056000	38.503036
810.188000	46.475435
811.320000	54.685302
812.452000	62.983317
813.584000	72.883538
814.716000	84.241997
815.848000	93.590123
816.980000	101.103446
818.112000	116.193007
819.244000	127.682532
820.376000	139.052422
821.508000	148.637080
822.640000	161.230524
823.772000	175.814874
824.904000	192.577859
826.036000	211.146384
827.168000	231.321659
828.300000	252.881261
829.432000	274.812843
830.564000	296.012906
831.696000	316.971077
832.828000	338.322447
833.960000	360.300503
835.092000	383.254211
836.224000	406.150880
837.356000	427.215377
838.488000	446.155722
839.620000	462.573618
840.752000	465.480564
841.884000	465.480564
843.016000	465.480564
844.148000	465.247681
845.280000	443.963655
846.412000	416.040745
847.544000	383.135744
848.676000	347.057442
849.808000	309.679230
850.940000	272.299183
852.072000	237.458965
853.204000	207.666467
854.336000	182.539149
855.468000	161.748501
856.600000	143.152518
857.732000	125.641222
858.864000	108.672622
859.996000	93.807940
861.128000	80.282176
862.260000	67.543441
863.392000	53.833444
864.524000	40.942595
865.656000	29.250623
866.788000	19.281857
867.920000	11.538184
869.052000	5.508046
870.184000	3.091140
871.316000	3.029593
872.448000	3.286219
873.580000	4.428247
874.712000	8.361304
875.844000	12.877117
876.976000	17.479031
878.108000	22.021846
879.240000	25.537462
880.372000	26.631449
881.504000	26.644986
882.636000	26.629233
883.768000	26.538129
884.900000	25.393823
886.032000	24.167876
887.164000	22.878929
888.296000	21.930171
889.428000	21.811512
890.560000	22.260905
891.692000	23.158263
892.824000	24.544772
893.956000	26.326828
895.088000	28.599653
896.220000	31.479058
897.352000	35.064507
898.484000	39.443050
899.616000	44.515584
900.748000	50.122169
901.880000	56.221920
903.012000	62.511913
904.144000	68.530686
905.276000	73.441733
906.408000	80.738728
907.540000	87.178733
908.672000	92.160638
909.804000	98.214142
910.936000	106.651359
912.068000	112.985410
913.200000	117.806550
914.332000	120.774803
915.464000	123.307037
916.596000	125.733671
917.728000	127.824959
918.860000	128.719238
919.992000	128.997621
921.124000	128.997621
922.256000	128.789682
923.388000	127.878265
924.520000	126.219402
925.652000	124.107968
926.784000	121.591773
927.916000	118.705171
929.048000	115.466802
930.180000	111.882634
931.312000	108.023519
932.444000	103.940791
933.576000	99.729111
934.708000	95.472669
935.840000	91.169763
936.972000	86.795475
938.104000	82.331667
939.236000	77.736861
940.368000	73.090359
941.500000	68.493598
942.632000	63.966901
943.764000	59.547299
944.896000	55.274166
946.028000	51.132226
947.160000	47.282436
948.292000	43.885698
949.424000	40.816922
950.556000	37.966774
951.688000	35.170981
952.820000	32.412309
953.952000	29.814569
955.084000	27.937688
956.216000	26.571814
957.348000	26.170497
958.480000	26.475100
959.612000	28.688971
960.744000	32.578538
961.876000	38.064275
963.008000	45.062744
964.140000	54.103704
965.272000	63.966757
966.404000	73.914307
967.536000	84.096143
968.668000	94.554009
969.800000	105.921438
970.932000	119.070543
972.064000	132.566852
973.196000	144.795392
974.328000	155.483966
975.460000	163.741285
976.592000	170.452413
977.724000	177.893387
978.856000	184.589066
979.988000	189.199488
981.120000	194.831456
982.252000	202.052528
983.384000	218.376117
984.516000	255.100755
985.648000	299.414174
986.780000	335.433780
987.912000	365.341503
989.044000	386.284223
990.176000	386.284223
991.308000	386.284223
992.440000	386.284223
993.572000	343.109753
994.704000	344.588562
995.836000	344.588562
996.968000	352.779305
998.100000	456.163807
999.232000	683.440273
1000.364000	1126.101647
1001.496000	1582.163681
1002.628000	1582.163681
1003.760000	1582.163681
1004.892000	1582.163681
1006.024000	1264.507978
1007.156000	836.389893
1008.288000	490.623390
1009.420000	273.743452
1010.552000	171.157179
1011.684000	133.172886
1012.816000	127.791527
1013.948000	119.590385
1015.080000	87.722583
1016.212000	84.814460
1017.344000	83.003273
1018.476000	89.828880
1019.608000	95.014175
1020.740000	109.682362
1021.872000	182.365955
1023.004000	286.099933
1024.136000	387.693794
1025.268000	470.394011
1026.400000	535.419491
1027.532000	587.291705
1028.664000	637.389386
1029.796000	698.821112
1030.928000	741.782814
1032.060000	741.782814
1033.192000	741.782814
1034.324000	737.956205
1035.456000	624.461702
1036.588000	507.236530
1037.720000	394.716835
1038.852000	332.808182
1039.984000	287.822055
1041.116000	252.015724
1042.248000	222.415238
1043.380000	204.393282
1044.512000	188.832255
1045.644000	173.877385
1046.776000	173.877385
1047.908000	180.478844
1049.040000	191.170972
1050.172000	211.345429
1051.304000	211.345429
1052.436000	211.345429
1053.568000	211.345429
1054.700000	191.017849
1055.832000	163.187086
1056.964000	136.565438
1058.096000	112.286647
1059.228000	89.343430
1060.360000	70.375920
1061.492000	57.829338
1062.624000	52.427087
1063.756000	50.316526
1064.888000	49.473813
1066.020000	48.887496
1067.152000	49.871737
1068.284000	51.377736
1069.416000	52.756306
1070.548000	52.995654
1071.680000	52.589422
1072.812000	51.713979
1073.944000	50.694115
1075.076000	50.001242
1076.208000	49.840935
1077.340000	49.517109
1078.472000	49.304688
1079.604000	49.202224
1080.736000	49.214230
1081.868000	49.175401
1083.000000	49.280644
1084.132000	49.216852
1085.264000	49.079288
1086.396000	48.971975
1087.528000	48.999765
1088.660000	49.277104
1089.792000	49.709374
1090.924000	50.120742
1092.056000	50.451180
1093.188000	50.604892
1094.320000	50.505943
1095.452000	49.500209
1096.584000	48.280160
1097.716000	47.166002
1098.848000	46.165913
1099.980000	44.002327
1101.112000	41.721998
1102.244000	39.284975
1103.376000	36.712455
1104.508000	34.009538
1105.640000	31.346965
1106.772000	28.665314
1107.904000	26.144087
1109.036000	23.812717
1110.168000	21.715322
1111.300000	19.893801
1112.432000	18.706405
1113.564000	18.132947
1114.696000	18.804219
1115.828000	19.597155
1116.960000	20.752560
1118.092000	23.021937
1119.224000	25.933395
1120.356000	29.217968
1121.488000	32.813826
1122.620000	36.681509
1123.752000	40.684434
1124.884000	44.694457
1126.016000	48.658636
1127.148000	52.503204
1128.280000	56.238893
1129.412000	59.885305
1130.544000	63.313126
1131.676000	66.374683
1132.808000	68.956499
1133.940000	70.635509
1135.072000	71.744851
1136.204000	72.781858
1137.336000	73.704713
1138.468000	73.867246
1139.600000	73.646639
1140.732000	73.171315
1141.864000	72.579457
1142.996000	72.011610
1144.128000	71.435238
1145.260000	70.731505
1146.392000	69.634017
1147.524000	68.244280
1148.656000	66.810362
1149.788000	65.307205
1150.920000	63.247076
1152.052000	60.777939
1153.184000	57.959962
1154.316000	54.990765
1155.448000	51.922293
1156.580000	48.893882
1157.712000	45.873336
1158.844000	42.815588
1159.976000	39.658296
1161.108000	36.376171
1162.240000	33.133118
1163.372000	30.165155
1164.504000	27.588509
1165.636000	25.514144
1166.768000	24.449161
1167.900000	24.195343
1169.032000	24.446292
1170.164000	25.917449
1171.296000	27.982235
1172.428000	31.107853
1173.560000	35.192925
1174.692000	39.693901
1175.824000	44.495960
1176.956000	49.632170
1178.088000	55.007459
1179.220000	60.479273
1180.352000	65.887022
1181.484000	70.997115
1182.616000	75.729039
1183.748000	79.952140
1184.880000	83.417255
1186.012000	86.106814
1187.144000	86.452036
1188.276000	86.090092
1189.408000	85.484609
1190.540000	83.842531
1191.672000	80.426659
1192.804000	76.335379
1193.936000	71.666915
1195.068000	66.476141
1196.200000	60.962740
1197.332000	55.319227
1198.464000	49.645654
1199.596000	44.044531
1200.728000	38.517100
1201.860000	33.053632
1202.992000	27.847572
1204.124000	23.090949
1205.256000	18.976088
1206.388000	15.812648
1207.520000	13.440679
1208.652000	11.346504
1209.784000	9.530065
1210.916000	8.443851
1212.048000	7.817244
1213.180000	7.574335
1214.312000	7.578248
1215.444000	7.678710
1216.576000	7.897043
1217.708000	8.297235
1218.840000	9.104194
1219.972000	10.044522
1221.104000	11.165830
1222.236000	12.463770
1223.368000	13.952114
1224.500000	15.493765
1225.632000	17.342781
1226.764000	19.293712
1227.896000	21.427352
1229.028000	23.661080
1230.160000	25.903733
1231.292000	28.230433
1232.424000	30.682572
1233.556000	33.294014
1234.688000	35.980032
1235.820000	38.617335
1236.952000	41.149617
1238.084000	43.521369
1239.216000	45.664662
1240.348000	47.458924
1241.480000	48.411978
1242.612000	49.037464
1243.744000	49.642570
1244.876000	49.950395
1246.008000	49.724070
1247.140000	49.224900
1248.272000	48.545733
1249.404000	47.513898
1250.536000	46.539610
1251.668000	45.525953
1252.800000	44.284176
1253.932000	43.108249
1255.064000	42.071490
1256.196000	40.661942
1257.328000	40.496829
1258.460000	39.930084
1259.592000	39.806230
1260.724000	41.217411
1261.856000	41.693764
1262.988000	42.404677
1264.120000	44.011539
1265.252000	46.527894
1266.384000	47.921080
1267.516000	51.568410
1268.648000	53.434155
1269.780000	55.350069
1270.912000	57.303211
1272.044000	59.683849
1273.176000	61.597529
1274.308000	63.450060
1275.440000	65.124143
1276.572000	66.661792
1277.704000	67.758923
1278.836000	68.699839
1279.968000	69.436750
1281.100000	69.768354
1282.232000	69.779212
1283.364000	69.575559
1284.496000	69.178676
1285.628000	68.607829
1286.760000	67.901190
1287.892000	67.110994
1289.024000	66.244945
1290.156000	65.323180
1291.288000	64.335802
1292.420000	63.282181
1293.552000	62.113622
1294.684000	61.014425
1295.816000	60.027650
1296.948000	59.123021
1298.080000	58.365709
1299.212000	57.544405
1300.344000	56.649525
1301.476000	55.769363
1302.608000	54.947146
1303.740000	54.110144
1304.872000	53.179312
1306.004000	52.212327
1307.136000	51.217979
1308.268000	50.181573
1309.400000	49.075485
1310.532000	47.962391
1311.664000	46.822723
1312.796000	45.648581
1313.928000	44.429658
1315.060000	43.305464
1316.192000	42.036631
1317.324000	40.669886
1318.456000	39.287148
1319.588000	37.998000
1320.720000	36.747991
1321.852000	35.573531
1322.984000	34.515827
1324.116000	33.624129
1325.248000	32.876360
1326.380000	32.253927
1327.512000	31.731856
1328.644000	31.307154
1329.776000	30.957299
1330.908000	30.873365
1332.040000	30.566972
1333.172000	30.182817
1334.304000	30.166090
1335.436000	30.278729
1336.568000	30.378476
1337.700000	30.630152
1338.832000	31.071749
1339.964000	31.357474
1341.096000	32.844357
1342.228000	34.055832
1343.360000	35.222272
1344.492000	39.291506
1345.624000	42.011949
1346.756000	46.576675
1347.888000	50.039612
1349.020000	52.776816
1350.152000	55.405052
1351.284000	60.631851
1352.416000	65.401401
1353.548000	71.546575
1354.680000	77.538076
1355.812000	84.219872
1356.944000	91.259052
1358.076000	98.484060
1359.208000	105.821314
1360.340000	113.165095
1361.472000	120.504560
1362.604000	127.848178
1363.736000	135.200745
1364.868000	142.576781
1366.000000	149.928069
1367.132000	157.186853
1368.264000	164.328994
1369.396000	171.345247
1370.528000	178.167894
1371.660000	184.762650
1372.792000	191.029108
1373.924000	196.879071
1375.056000	202.301400
1376.188000	207.314397
1377.320000	211.903755
1378.452000	215.854071
1379.584000	219.611170
1380.716000	222.581299
1381.848000	224.661308
1382.980000	226.185083
1384.112000	227.354131
1385.244000	226.679063
1386.376000	224.480667
1387.508000	222.854300
1388.640000	220.895513
1389.772000	215.463501
1390.904000	211.969221
1392.036000	207.436513
1393.168000	199.242821
1394.300000	187.649638
1395.432000	182.125502
1396.564000	174.735572
1397.696000	168.265355
1398.828000	158.805536
1399.960000	152.021902
1401.092000	143.132108
1402.224000	134.746851
1403.356000	126.131746
1404.488000	117.591230
1405.620000	109.333724
1406.752000	101.352934
1407.884000	93.672455
1409.016000	86.319192
1410.148000	79.326019
1411.280000	72.700221
1412.412000	66.462706
1413.544000	60.613550
1414.676000	55.159553
1415.808000	50.120942
1416.940000	45.541719
1418.072000	41.425746
1419.204000	37.789958
1420.336000	34.669280
1421.468000	32.107426
1422.600000	30.416648
1423.732000	29.105564
1424.864000	28.372550
1425.996000	28.119884
1427.128000	28.399045
1428.260000	29.195502
1429.392000	30.577022
1430.524000	32.257418
1431.656000	34.382473
1432.788000	36.744520
1433.920000	39.389773
1435.052000	42.431647
1436.184000	45.918403
1437.316000	49.916761
1438.448000	54.449771
1439.580000	59.492040
1440.712000	65.124340
1441.844000	71.396439
1442.976000	78.206764
1444.108000	85.436017
1445.240000	92.880646
1446.372000	100.312543
1447.504000	107.731159
1448.636000	115.152975
1449.768000	122.552017
1450.900000	129.925070
1452.032000	137.050233
1453.164000	143.632675
1454.296000	149.542506
1455.428000	154.643464
1456.560000	158.693190
1457.692000	160.036834
1458.824000	160.036834
1459.956000	160.036834
1461.088000	160.033875
1462.220000	156.587876
1463.352000	151.861037
1464.484000	146.288476
1465.616000	139.952509
1466.748000	132.878827
1467.880000	125.246797
1469.012000	117.210761
1470.144000	108.954694
1471.276000	100.712382
1472.408000	92.552752
1473.540000	84.539830
1474.672000	76.946926
1475.804000	70.031070
1476.936000	64.099880
1478.068000	59.435541
1479.200000	56.213024
1480.332000	53.824756
1481.464000	52.326004
1482.596000	51.043056
1483.728000	50.327645
1484.860000	49.932119
1485.992000	50.118872
1487.124000	50.405510
1488.256000	50.754643
1489.388000	51.109226
1490.520000	51.522245
1491.652000	52.018248
1492.784000	52.457143
1493.916000	52.276888
1495.048000	51.979196
1496.180000	51.724857
1497.312000	51.016252
1498.444000	49.720513
1499.576000	48.152224
1500.708000	46.362461
1501.840000	44.486118
1502.972000	42.529717
1504.104000	40.601780
1505.236000	38.813796
1506.368000	37.245258
1507.500000	35.783224
1508.632000	34.354025
1509.764000	32.899184
1510.896000	31.426802
1512.028000	29.879085
1513.160000	28.294752
1514.292000	26.948784
1515.424000	25.819638
1516.556000	24.501645
1517.688000	23.402417
1518.820000	22.553914
1519.952000	21.842904
1521.084000	21.412779
1522.216000	20.896153
1523.348000	20.498626
1524.480000	19.402291
1525.612000	15.675004
1526.744000	15.227511
1527.876000	12.185485
1529.008000	10.616711
1530.140000	10.616711
1531.272000	10.502665
1532.404000	10.509963
1533.536000	10.729941
1534.668000	11.224302
1535.800000	11.855196
1536.932000	12.950303
1538.064000	14.272670
1539.196000	15.740814
1540.328000	17.286936
1541.460000	18.835952
1542.592000	20.288131
1543.724000	21.610476
1544.856000	22.809925
1545.988000	23.951189
1547.120000	24.430420
1548.252000	24.498519
1549.384000	24.590619
1550.516000	24.649802
1551.648000	23.451010
1552.780000	21.915027
1553.912000	20.181494
1555.044000	18.264577
1556.176000	16.413976
1557.308000	14.958137
1558.440000	13.936830
1559.572000	13.850246
1560.704000	14.849111
1561.836000	16.239529
1562.968000	17.712752
1564.100000	18.654751
1565.232000	19.216835
1566.364000	20.059709
1567.496000	20.867069
1568.628000	21.594327
1569.760000	22.108462
1570.892000	22.500734
1572.024000	23.150359
1573.156000	25.058063
1574.288000	26.032390
1575.420000	25.997405
1576.552000	25.732351
1577.684000	23.983071
1578.816000	17.694690
1579.948000	11.760920
1581.080000	6.010818
1582.212000	1.246406
1583.344000	0.000000
1584.476000	0.000000
1585.608000	0.000000
1586.740000	0.058544
1587.872000	7.218524
1589.004000	19.152195
1590.136000	32.528528
1591.268000	48.714039
1592.400000	54.459278
1593.532000	54.459278
1594.664000	54.459278
1595.796000	54.459278
1596.928000	32.244270
1598.060000	0.000000
1599.192000	0.000000
