800.000000	0.000000
801.132000	1.482522
802.264000	3.393029
803.396000	5.994529
804.528000	9.408101
805.660000	13.767290
806.792000	19.205338
807.924000	25.852194
809.056000	33.608934
810.188000	42.266228
811.320000	51.672377
812.452000	61.654186
813.584000	72.152761
814.716000	83.163725
815.848000	94.458894
816.980000	105.819039
818.112000	117.321554
819.244000	128.982164
820.376000	140.964704
821.508000	153.510190
822.640000	166.099432
823.772000	178.086829
824.904000	189.586138
826.036000	200.414889
827.168000	209.585610
828.300000	218.602032
829.432000	227.295587
830.564000	234.817891
831.696000	241.444492
832.828000	248.649818
833.960000	255.391970
835.092000	261.689520
836.224000	279.275270
837.356000	290.138819
838.488000	293.799778
839.620000	296.577365
840.752000	296.773114
841.884000	282.521447
843.016000	273.217020
844.148000	270.741058
845.280000	265.409086
846.412000	258.565474
847.544000	250.440674
848.676000	241.329830
849.808000	231.336510
850.940000	218.231567
852.072000	203.319324
853.204000	188.688438
854.336000	174.280491
855.468000	159.672443
856.600000	144.835091
857.732000	129.763232
858.864000	114.846672
859.996000	100.580461
861.128000	87.335378
862.260000	75.493025
863.392000	65.006347
864.524000	55.692712
865.656000	47.464192
866.788000	40.201330
867.920000	33.831359
869.052000	28.348025
870.184000	23.584118
871.316000	19.383935
872.448000	15.766846
873.580000	12.929330
874.712000	10.706099
875.844000	9.362774
876.976000	8.717120
878.108000	8.361640
879.240000	8.544853
880.372000	9.338762
881.504000	10.652533
882.636000	12.367536
883.768000	14.840853
884.900000	17.978385
886.032000	21.653126
887.164000	25.847534
888.296000	30.575327
889.428000	35.956988
890.560000	41.881862
891.692000	48.292396
892.824000	55.127319
893.956000	62.319171
895.088000	69.858117
896.220000	77.710676
897.352000	85.752111
898.484000	93.660642
899.616000	101.463678
900.748000	111.270493
901.880000	118.781150
903.012000	126.404885
904.144000	138.522843
905.276000	147.563174
906.408000	154.694589
907.540000	163.509940
908.672000	168.467614
909.804000	176.351600
910.936000	180.860597
912.068000	186.349779
913.200000	195.603035
914.332000	200.076735
915.464000	204.214868
916.596000	208.571257
917.728000	211.887761
918.860000	215.048006
919.992000	217.170980
921.124000	218.487816
922.256000	220.300471
923.388000	220.807574
924.520000	220.980959
925.652000	220.676844
926.784000	219.911400
927.916000	218.020336
929.048000	215.368971
930.180000	212.340514
931.312000	208.924924
932.444000	203.723979
933.576000	197.283331
934.708000	189.435945
935.840000	180.363293
936.972000	170.292260
938.104000	159.535386
939.236000	148.440988
940.368000	137.066765
941.500000	125.406231
942.632000	113.587099
943.764000	101.701714
944.896000	90.015893
946.028000	78.877713
947.160000	68.406913
948.292000	58.717015
949.424000	50.172311
950.556000	43.491815
951.688000	38.967848
952.820000	36.243245
953.952000	35.123939
955.084000	34.918882
956.216000	36.959918
957.348000	40.214660
958.480000	44.194125
959.612000	49.206472
960.744000	54.702924
961.876000	60.352835
963.008000	66.091968
964.140000	71.894422
965.272000	77.840323
966.404000	83.800920
967.536000	89.542973
968.668000	95.043945
969.800000	99.997456
970.932000	104.208229
972.064000	107.694034
973.196000	110.109695
974.328000	111.989716
975.460000	113.672278
976.592000	115.247688
977.724000	115.870567
978.856000	116.406600
979.988000	117.121252
981.120000	117.853577
982.252000	118.270271
983.384000	118.315573
984.516000	117.499549
985.648000	116.271889
986.780000	114.302170
987.912000	111.306721
989.044000	107.055951
990.176000	102.109799
991.308000	96.167945
992.440000	90.089354
993.572000	84.365542
994.704000	79.128591
995.836000	74.288983
996.968000	70.774693
998.100000	68.152285
999.232000	66.494257
1000.364000	66.049011
1001.496000	66.780680
1002.628000	67.569669
1003.760000	69.143757
1004.892000	73.067987
1006.024000	79.900653
1007.156000	89.690965
1008.288000	102.356763
1009.420000	116.942125
1010.552000	134.223775
1011.684000	155.011931
1012.816000	176.712007
1013.948000	196.451687
1015.080000	212.404246
1016.212000	222.372223
1017.344000	226.521175
1018.476000	228.012239
1019.608000	229.464030
1020.740000	230.694222
1021.872000	232.884513
1023.004000	238.079373
1024.136000	255.779787
1025.268000	292.415588
1026.400000	342.053470
1027.532000	395.663650
1028.664000	455.868085
1029.796000	523.221123
1030.928000	586.894671
1032.060000	599.362852
1033.192000	599.362852
1034.324000	599.362852
1035.456000	561.947989
1036.588000	477.303496
1037.720000	394.878549
1038.852000	350.531094
1039.984000	312.778021
1041.116000	278.213670
1042.248000	251.885133
1043.380000	244.147673
1044.512000	240.673707
1045.644000	231.840605
1046.776000	231.840605
1047.908000	237.983814
1049.040000	239.373890
1050.172000	237.339256
1051.304000	236.787876
1052.436000	236.787876
1053.568000	235.851930
1054.700000	225.838751
1055.832000	213.385901
1056.964000	200.130136
1058.096000	187.962333
1059.228000	176.314686
1060.360000	164.496173
1061.492000	156.294935
1062.624000	151.154580
1063.756000	147.932853
1064.888000	145.877083
1066.020000	143.802593
1067.152000	141.484728
1068.284000	139.345251
1069.416000	137.700999
1070.548000	136.276321
1071.680000	135.066887
1072.812000	134.043312
1073.944000	133.399536
1075.076000	133.310928
1076.208000	134.261957
1077.340000	135.343452
1078.472000	136.444761
1079.604000	137.800818
1080.736000	139.974040
1081.868000	142.516628
1083.000000	145.364059
1084.132000	148.396948
1085.264000	151.602492
1086.396000	154.984610
1087.528000	158.534469
1088.660000	162.200946
1089.792000	165.903968
1090.924000	169.592643
1092.056000	173.182883
1093.188000	176.620859
1094.320000	179.802745
1095.452000	182.669549
1096.584000	185.116297
1097.716000	186.791350
1098.848000	188.303377
1099.980000	189.658470
1101.112000	190.236218
1102.244000	190.426682
1103.376000	190.148408
1104.508000	189.617405
1105.640000	188.764881
1106.772000	187.548809
1107.904000	185.875593
1109.036000	184.102398
1110.168000	182.255044
1111.300000	180.194646
1112.432000	177.568075
1113.564000	175.139049
1114.696000	172.867205
1115.828000	171.315200
1116.960000	168.148961
1118.092000	167.501711
1119.224000	163.642990
1120.356000	159.801636
1121.488000	158.195452
1122.620000	152.820923
1123.752000	143.782942
1124.884000	141.303123
1126.016000	130.397790
1127.148000	119.680589
1128.280000	111.768757
1129.412000	108.419203
1130.544000	104.791733
1131.676000	100.087203
1132.808000	92.878351
1133.940000	86.389880
1135.072000	80.238953
1136.204000	73.816686
1137.336000	67.608403
1138.468000	61.759666
1139.600000	56.114938
1140.732000	50.870995
1141.864000	45.825701
1142.996000	40.971116
1144.128000	36.624168
1145.260000	32.856408
1146.392000	29.774460
1147.524000	27.360548
1148.656000	25.523351
1149.788000	24.416914
1150.920000	25.005458
1152.052000	25.884994
1153.184000	27.068102
1154.316000	29.347726
1155.448000	32.740691
1156.580000	36.811180
1157.712000	41.504341
1158.844000	46.783026
1159.976000	52.554954
1161.108000	58.728750
1162.240000	65.229940
1163.372000	71.842978
1164.504000	78.434793
1165.636000	84.944770
1166.768000	91.359449
1167.900000	97.429242
1169.032000	103.001668
1170.164000	107.868272
1171.296000	112.082106
1172.428000	115.727454
1173.560000	118.885836
1174.692000	121.513668
1175.824000	123.827564
1176.956000	126.015515
1178.088000	127.967315
1179.220000	129.701869
1180.352000	131.181118
1181.484000	132.569101
1182.616000	133.856108
1183.748000	135.057369
1184.880000	136.273831
1186.012000	137.464996
1187.144000	138.881223
1188.276000	140.486729
1189.408000	142.144312
1190.540000	143.836194
1191.672000	145.635901
1192.804000	147.445293
1193.936000	149.222274
1195.068000	150.906085
1196.200000	152.379222
1197.332000	153.637363
1198.464000	154.595190
1199.596000	155.288988
1200.728000	155.719206
1201.860000	155.801421
1202.992000	155.063850
1204.124000	154.181072
1205.256000	153.169054
1206.388000	151.765335
1207.520000	149.454748
1208.652000	146.706933
1209.784000	143.583183
1210.916000	140.171472
1212.048000	136.513668
1213.180000	132.645141
1214.312000	128.634844
1215.444000	124.562520
1216.576000	120.462829
1217.708000	116.389496
1218.840000	112.353643
1219.972000	108.376965
1221.104000	104.518876
1222.236000	100.857524
1223.368000	97.450166
1224.500000	94.370487
1225.632000	91.816016
1226.764000	89.412994
1227.896000	87.166229
1229.028000	85.095139
1230.160000	83.470109
1231.292000	82.110664
1232.424000	80.984620
1233.556000	80.066386
1234.688000	79.357839
1235.820000	78.870458
1236.952000	78.678780
1238.084000	78.673353
1239.216000	78.849225
1240.348000	79.279353
1241.480000	80.198979
1242.612000	81.125417
1243.744000	82.086868
1244.876000	83.167674
1246.008000	84.632978
1247.140000	86.271728
1248.272000	88.132818
1249.404000	90.175500
1250.536000	92.399039
1251.668000	94.791057
1252.800000	97.352017
1253.932000	100.072150
1255.064000	102.975526
1256.196000	106.073821
1257.328000	109.214163
1258.460000	112.371327
1259.592000	115.768870
1260.724000	119.282458
1261.856000	122.894132
1262.988000	126.564938
1264.120000	130.272479
1265.252000	133.975870
1266.384000	137.660795
1267.516000	141.299890
1268.648000	144.873023
1269.780000	148.345651
1270.912000	151.702539
1272.044000	154.910114
1273.176000	157.960953
1274.308000	160.832925
1275.440000	163.504405
1276.572000	165.680001
1277.704000	167.738271
1278.836000	169.715604
1279.968000	171.600193
1281.100000	172.908441
1282.232000	173.929920
1283.364000	174.656376
1284.496000	175.102613
1285.628000	175.266131
1286.760000	175.098219
1287.892000	174.671447
1289.024000	174.042924
1290.156000	173.129156
1291.288000	171.929380
1292.420000	170.537472
1293.552000	169.068760
1294.684000	167.086581
1295.816000	164.828815
1296.948000	162.286981
1298.080000	159.486484
1299.212000	156.444569
1300.344000	153.192967
1301.476000	149.753939
1302.608000	146.152442
1303.740000	142.398045
1304.872000	138.521061
1306.004000	134.538950
1307.136000	130.480459
1308.268000	126.364198
1309.400000	122.214696
1310.532000	118.044153
1311.664000	113.887068
1312.796000	109.766136
1313.928000	105.715450
1315.060000	101.757662
1316.192000	97.912994
1317.324000	94.185093
1318.456000	90.594042
1319.588000	87.146780
1320.720000	83.858668
1321.852000	80.735909
1322.984000	77.789217
1324.116000	75.018099
1325.248000	72.444223
1326.380000	70.081363
1327.512000	67.950538
1328.644000	66.063152
1329.776000	64.434627
1330.908000	63.143036
1332.040000	62.416413
1333.172000	61.648458
1334.304000	60.863872
1335.436000	60.410723
1336.568000	60.462470
1337.700000	60.793628
1338.832000	61.445532
1339.964000	62.370703
1341.096000	63.569926
1342.228000	64.950364
1343.360000	66.691893
1344.492000	68.651976
1345.624000	70.777922
1346.756000	73.128337
1347.888000	75.736460
1349.020000	78.544600
1350.152000	81.541881
1351.284000	84.712540
1352.416000	88.042210
1353.548000	91.505763
1354.680000	95.097952
1355.812000	98.807024
1356.944000	102.603819
1358.076000	106.455908
1359.208000	110.329568
1360.340000	114.185836
1361.472000	118.028947
1362.604000	121.869560
1363.736000	125.704837
1364.868000	129.533766
1366.000000	133.354865
1367.132000	137.152701
1368.264000	140.937885
1369.396000	144.570942
1370.528000	148.167654
1371.660000	151.870714
1372.792000	155.582512
1373.924000	158.869140
1375.056000	161.932000
1376.188000	164.762579
1377.320000	167.340149
1378.452000	169.648407
1379.584000	171.637869
1380.716000	173.156087
1381.848000	174.270903
1382.980000	175.055302
1384.112000	175.327450
1385.244000	174.375315
1386.376000	173.407760
1387.508000	172.440727
1388.640000	170.845541
1389.772000	168.145217
1390.904000	164.828879
1392.036000	161.173604
1393.168000	157.101857
1394.300000	152.639187
1395.432000	147.831591
1396.564000	142.734915
1397.696000	137.391784
1398.828000	131.730535
1399.960000	126.016864
1401.092000	120.316038
1402.224000	114.471013
1403.356000	108.576828
1404.488000	102.719865
1405.620000	96.957198
1406.752000	91.313568
1407.884000	85.821718
1409.016000	80.479573
1410.148000	75.297153
1411.280000	70.306532
1412.412000	65.561295
1413.544000	61.097636
1414.676000	56.972798
1415.808000	53.155813
1416.940000	49.606636
1418.072000	46.303776
1419.204000	43.218460
1420.336000	40.340676
1421.468000	37.696508
1422.600000	35.291725
1423.732000	33.498238
1424.864000	31.489668
1425.996000	29.369963
1427.128000	27.448311
1428.260000	26.372468
1429.392000	25.713993
1430.524000	25.437364
1431.656000	25.500110
1432.788000	26.152270
1433.920000	27.079945
1435.052000	28.348065
1436.184000	30.060041
1437.316000	33.215126
1438.448000	36.904636
1439.580000	41.144449
1440.712000	46.830073
1441.844000	53.785862
1442.976000	61.863330
1444.108000	70.871554
1445.240000	80.581432
1446.372000	90.726355
1447.504000	101.247021
1448.636000	112.112931
1449.768000	123.203886
1450.900000	134.418290
1452.032000	145.559126
1453.164000	156.375835
1454.296000	166.763718
1455.428000	176.620166
1456.560000	185.693228
1457.692000	193.774352
1458.824000	200.575943
1459.956000	205.836903
1461.088000	209.136801
1462.220000	211.534971
1463.352000	212.937353
1464.484000	213.611848
1465.616000	213.240020
1466.748000	212.482749
1467.880000	210.659734
1469.012000	208.386036
1470.144000	205.674475
1471.276000	202.721115
1472.408000	199.378147
1473.540000	195.771210
1474.672000	192.062398
1475.804000	188.420508
1476.936000	185.024429
1478.068000	182.053530
1479.200000	179.452822
1480.332000	177.115908
1481.464000	174.953655
1482.596000	172.858035
1483.728000	170.783356
1484.860000	168.725592
1485.992000	166.589007
1487.124000	164.300411
1488.256000	161.810497
1489.388000	159.080453
1490.520000	156.110405
1491.652000	152.925804
1492.784000	149.441725
1493.916000	145.593593
1495.048000	141.291628
1496.180000	136.468890
1497.312000	131.170527
1498.444000	125.498391
1499.576000	119.528203
1500.708000	113.373601
1501.840000	107.065436
1502.972000	100.637595
1504.104000	94.144603
1505.236000	87.650820
1506.368000	81.228918
1507.500000	74.976615
1508.632000	68.920661
1509.764000	63.099177
1510.896000	57.606016
1512.028000	52.527333
1513.160000	48.186188
1514.292000	44.249362
1515.424000	40.700022
1516.556000	37.870964
1517.688000	35.485671
1518.820000	33.443714
1519.952000	31.739187
1521.084000	30.369972
1522.216000	29.330603
1523.348000	28.490475
1524.480000	27.822975
1525.612000	27.290307
1526.744000	26.916378
1527.876000	26.640074
1529.008000	26.327527
1530.140000	25.597052
1531.272000	24.803660
1532.404000	23.889899
1533.536000	22.366872
1534.668000	20.725214
1535.800000	19.012398
1536.932000	17.325725
1538.064000	15.707224
1539.196000	14.116370
1540.328000	12.613014
1541.460000	11.255009
1542.592000	10.075513
1543.724000	9.116577
1544.856000	8.367055
1545.988000	7.816484
1547.120000	7.552889
1548.252000	7.696010
1549.384000	7.773314
1550.516000	7.773314
1551.648000	7.773314
1552.780000	8.458947
1553.912000	9.360347
1555.044000	10.547729
1556.176000	12.016792
1557.308000	13.742058
1558.440000	15.566202
1559.572000	17.380303
1560.704000	19.258782
1561.836000	21.104292
1562.968000	22.395777
1564.100000	23.386074
1565.232000	27.180154
1566.364000	28.951834
1567.496000	31.719179
1568.628000	38.471958
1569.760000	41.634277
1570.892000	47.924819
1572.024000	52.043761
1573.156000	55.082111
1574.288000	58.461446
1575.420000	61.572007
1576.552000	65.375501
1577.684000	69.161214
1578.816000	72.374128
1579.948000	75.266844
1581.080000	77.388902
1582.212000	78.941782
1583.344000	79.506618
1584.476000	78.659980
1585.608000	77.147609
1586.740000	74.853056
1587.872000	70.461575
1589.004000	64.748890
1590.136000	57.769369
1591.268000	50.780947
1592.400000	43.297048
1593.532000	34.611025
1594.664000	25.635347
1595.796000	16.491731
1596.928000	8.160225
1598.060000	0.000000
1599.192000	0.000000
