800.000000	0.000000
801.132000	1.238784
802.264000	2.557871
803.396000	3.931994
804.528000	5.474999
805.660000	7.365141
806.792000	9.646357
807.924000	12.317309
809.056000	15.368448
810.188000	18.759516
811.320000	22.564870
812.452000	26.857473
813.584000	31.535597
814.716000	36.511346
815.848000	41.622845
816.980000	46.719561
818.112000	51.940517
819.244000	57.527172
820.376000	63.571688
821.508000	70.194558
822.640000	77.508163
823.772000	85.537934
824.904000	94.478869
826.036000	104.492749
827.168000	115.403925
828.300000	126.971315
829.432000	138.865659
830.564000	150.704100
831.696000	162.453317
832.828000	174.116317
833.960000	185.594092
835.092000	196.810258
836.224000	207.471277
837.356000	217.163874
838.488000	225.736732
839.620000	233.022369
840.752000	238.162855
841.884000	239.300680
843.016000	239.300680
844.148000	239.300680
845.280000	237.999050
846.412000	232.058836
847.544000	224.002183
848.676000	214.513362
849.808000	203.759412
850.940000	191.821145
852.072000	179.003130
853.204000	165.591837
854.336000	151.810799
855.468000	137.912126
856.600000	123.974990
857.732000	110.062660
858.864000	96.526320
859.996000	83.709681
861.128000	71.976803
862.260000	61.682088
863.392000	52.759632
864.524000	45.011876
865.656000	38.334581
866.788000	32.570495
867.920000	27.625810
869.052000	23.465479
870.184000	19.891773
871.316000	16.728062
872.448000	14.040868
873.580000	11.681712
874.712000	9.870752
875.844000	8.322074
876.976000	7.125049
878.108000	6.219048
879.240000	5.671014
880.372000	5.260755
881.504000	5.125907
882.636000	5.102359
883.768000	5.217867
884.900000	5.625424
886.032000	6.448581
887.164000	7.610598
888.296000	9.030230
889.428000	10.748153
890.560000	12.994619
891.692000	15.628717
892.824000	18.608150
893.956000	21.882233
895.088000	25.465116
896.220000	29.370979
897.352000	33.616031
898.484000	38.205909
899.616000	43.091612
900.748000	48.184896
901.880000	53.428302
903.012000	58.747127
904.144000	64.097941
905.276000	69.430394
906.408000	74.673777
907.540000	79.750784
908.672000	84.634092
909.804000	89.288396
910.936000	93.723158
912.068000	97.937795
913.200000	101.863043
914.332000	105.421576
915.464000	108.560687
916.596000	110.847527
917.728000	112.815432
918.860000	114.739997
919.992000	116.551594
921.124000	117.489183
922.256000	118.068834
923.388000	118.321330
924.520000	118.357965
925.652000	118.279395
926.784000	118.003090
927.916000	117.409124
929.048000	116.331693
930.180000	114.547208
931.312000	112.561476
932.444000	110.479304
933.576000	107.627906
934.708000	104.298418
935.840000	100.418038
936.972000	96.111156
938.104000	91.634752
939.236000	87.211722
940.368000	82.673661
941.500000	77.810834
942.632000	72.538783
943.764000	66.728679
944.896000	60.557480
946.028000	54.578583
947.160000	48.793603
948.292000	43.192687
949.424000	38.352117
950.556000	36.638171
951.688000	35.181648
952.820000	34.011635
953.952000	35.760392
955.084000	39.282862
956.216000	43.728655
957.348000	48.894743
958.480000	53.997074
959.612000	58.530792
960.744000	58.702199
961.876000	58.740933
963.008000	58.802582
964.140000	58.949581
965.272000	55.918942
966.404000	52.725020
967.536000	49.801958
968.668000	47.378076
969.800000	48.355747
970.932000	49.561566
972.064000	50.794492
973.196000	52.054562
974.328000	55.917586
975.460000	59.880916
976.592000	63.794444
977.724000	67.671571
978.856000	71.198915
979.988000	74.097625
981.120000	75.796759
982.252000	77.326208
983.384000	78.510175
984.516000	79.263215
985.648000	79.167078
986.780000	78.295263
987.912000	76.722830
989.044000	74.841828
990.176000	72.015334
991.308000	68.716827
992.440000	64.894216
993.572000	60.898319
994.704000	56.771757
995.836000	52.533844
996.968000	48.289642
998.100000	44.126423
999.232000	40.209920
1000.364000	36.782308
1001.496000	33.947387
1002.628000	32.261920
1003.760000	31.265212
1004.892000	31.265212
1006.024000	31.865009
1007.156000	34.089773
1008.288000	38.522383
1009.420000	44.423381
1010.552000	51.528688
1011.684000	59.703946
1012.816000	68.537317
1013.948000	77.651105
1015.080000	86.622004
1016.212000	94.990940
1017.344000	102.826501
1018.476000	110.439217
1019.608000	117.650352
1020.740000	124.810206
1021.872000	131.730221
1023.004000	139.118754
1024.136000	147.301033
1025.268000	156.737285
1026.400000	166.689577
1027.532000	176.744769
1028.664000	186.827077
1029.796000	196.553895
1030.928000	204.621000
1032.060000	207.698316
1033.192000	208.610357
1034.324000	209.270162
1035.456000	209.668461
1036.588000	203.721192
1037.720000	195.844829
1038.852000	187.095339
1039.984000	178.450096
1041.116000	170.026136
1042.248000	163.065828
1043.380000	159.752014
1044.512000	158.211885
1045.644000	156.143200
1046.776000	154.212787
1047.908000	154.176211
1049.040000	154.088903
1050.172000	153.861752
1051.304000	151.436838
1052.436000	148.838519
1053.568000	146.118714
1054.700000	143.302243
1055.832000	138.808460
1056.964000	134.288324
1058.096000	129.492804
1059.228000	124.966213
1060.360000	120.989420
1061.492000	118.033317
1062.624000	114.891702
1063.756000	111.784076
1064.888000	108.740801
1066.020000	106.233768
1067.152000	103.862628
1068.284000	101.674961
1069.416000	99.621376
1070.548000	97.717395
1071.680000	95.967685
1072.812000	94.348448
1073.944000	92.895097
1075.076000	91.916544
1076.208000	91.220711
1077.340000	90.818609
1078.472000	91.207486
1079.604000	91.675413
1080.736000	92.135809
1081.868000	93.194135
1083.000000	94.651747
1084.132000	96.329021
1085.264000	98.186625
1086.396000	100.208363
1087.528000	102.334891
1088.660000	104.521142
1089.792000	106.730268
1090.924000	108.934761
1092.056000	111.116597
1093.188000	113.430214
1094.320000	115.536879
1095.452000	117.360844
1096.584000	118.770388
1097.716000	120.041180
1098.848000	121.404499
1099.980000	122.816474
1101.112000	123.595384
1102.244000	124.114879
1103.376000	124.349721
1104.508000	124.263698
1105.640000	124.094387
1106.772000	123.883469
1107.904000	123.341938
1109.036000	122.526566
1110.168000	121.425651
1111.300000	120.012276
1112.432000	117.853338
1113.564000	115.604543
1114.696000	113.306577
1115.828000	110.827168
1116.960000	107.584768
1118.092000	104.015237
1119.224000	100.163855
1120.356000	96.095493
1121.488000	91.825028
1122.620000	87.372318
1123.752000	82.763628
1124.884000	78.037741
1126.016000	73.232434
1127.148000	68.412965
1128.280000	63.603123
1129.412000	58.849269
1130.544000	54.201574
1131.676000	49.708039
1132.808000	45.420070
1133.940000	41.444116
1135.072000	37.653564
1136.204000	34.020484
1137.336000	30.556740
1138.468000	27.385359
1139.600000	24.470577
1140.732000	21.836228
1141.864000	19.478993
1142.996000	17.403215
1144.128000	15.551427
1145.260000	13.882441
1146.392000	12.376940
1147.524000	11.105725
1148.656000	10.060760
1149.788000	9.244137
1150.920000	8.627751
1152.052000	8.075852
1153.184000	7.949491
1154.316000	7.939838
1155.448000	7.920879
1156.580000	8.086902
1157.712000	8.603354
1158.844000	9.289692
1159.976000	10.144506
1161.108000	11.148050
1162.240000	12.358620
1163.372000	13.740546
1164.504000	15.428448
1165.636000	17.391726
1166.768000	19.684048
1167.900000	22.270030
1169.032000	25.479091
1170.164000	29.213876
1171.296000	33.422567
1172.428000	38.004500
1173.560000	42.876386
1174.692000	47.911476
1175.824000	53.020898
1176.956000	58.288260
1178.088000	63.654416
1179.220000	69.013695
1180.352000	74.271777
1181.484000	79.342938
1182.616000	84.197347
1183.748000	88.845782
1184.880000	93.087609
1186.012000	96.812175
1187.144000	99.911010
1188.276000	102.367368
1189.408000	103.918327
1190.540000	105.149003
1191.672000	106.056190
1192.804000	106.176206
1193.936000	106.100729
1195.068000	105.607789
1196.200000	104.917925
1197.332000	103.837104
1198.464000	102.559101
1199.596000	101.059441
1200.728000	99.375608
1201.860000	97.508151
1202.992000	95.516229
1204.124000	93.385197
1205.256000	91.263907
1206.388000	89.350448
1207.520000	87.707400
1208.652000	85.797102
1209.784000	83.777126
1210.916000	81.956518
1212.048000	80.154803
1213.180000	78.379312
1214.312000	76.607938
1215.444000	74.831494
1216.576000	73.051015
1217.708000	71.283364
1218.840000	69.540228
1219.972000	67.849946
1221.104000	65.965728
1222.236000	64.404966
1223.368000	63.140081
1224.500000	61.823705
1225.632000	60.049240
1226.764000	58.724284
1227.896000	57.451276
1229.028000	56.264232
1230.160000	55.182034
1231.292000	54.294592
1232.424000	53.555338
1233.556000	52.980974
1234.688000	52.582248
1235.820000	52.388265
1236.952000	52.396414
1238.084000	52.642975
1239.216000	53.348351
1240.348000	54.102919
1241.480000	55.168254
1242.612000	56.350676
1243.744000	57.547838
1244.876000	59.164593
1246.008000	61.260227
1247.140000	63.633953
1248.272000	65.985258
1249.404000	68.471848
1250.536000	71.048064
1251.668000	73.676645
1252.800000	76.345112
1253.932000	79.049135
1255.064000	81.788463
1256.196000	84.571917
1257.328000	87.387159
1258.460000	90.300411
1259.592000	93.023286
1260.724000	95.495092
1261.856000	98.056522
1262.988000	100.545542
1264.120000	102.938557
1265.252000	105.213528
1266.384000	107.331336
1267.516000	109.423571
1268.648000	111.516460
1269.780000	113.536314
1270.912000	115.484174
1272.044000	117.248235
1273.176000	118.847894
1274.308000	120.268633
1275.440000	121.474429
1276.572000	122.152774
1277.704000	122.713302
1278.836000	123.092316
1279.968000	122.974432
1281.100000	122.536820
1282.232000	121.839947
1283.364000	120.949497
1284.496000	119.985670
1285.628000	118.883523
1286.760000	117.625784
1287.892000	116.136522
1289.024000	114.554638
1290.156000	112.983009
1291.288000	111.401955
1292.420000	110.060552
1293.552000	109.093444
1294.684000	108.664685
1295.816000	108.070162
1296.948000	107.764144
1298.080000	107.571982
1299.212000	108.221297
1300.344000	109.113067
1301.476000	110.120382
1302.608000	111.236856
1303.740000	112.461023
1304.872000	113.757105
1306.004000	115.080826
1307.136000	116.361280
1308.268000	117.482852
1309.400000	118.422852
1310.532000	119.066024
1311.664000	119.041175
1312.796000	118.902826
1313.928000	118.166089
1315.060000	117.494718
1316.192000	116.094348
1317.324000	113.801580
1318.456000	110.968807
1319.588000	108.046508
1320.720000	104.925313
1321.852000	101.617227
1322.984000	98.218799
1324.116000	94.833227
1325.248000	91.479099
1326.380000	88.219479
1327.512000	85.131313
1328.644000	82.223660
1329.776000	79.596519
1330.908000	77.236982
1332.040000	75.328668
1333.172000	74.891723
1334.304000	74.511776
1335.436000	73.867776
1336.568000	73.832155
1337.700000	74.433951
1338.832000	75.350403
1339.964000	76.548566
1341.096000	77.969853
1342.228000	79.533403
1343.360000	81.222549
1344.492000	82.997622
1345.624000	84.866333
1346.756000	86.816914
1347.888000	88.918261
1349.020000	90.896843
1350.152000	92.695389
1351.284000	94.271298
1352.416000	95.906635
1353.548000	97.508062
1354.680000	98.963570
1355.812000	100.311298
1356.944000	101.596252
1358.076000	102.803302
1359.208000	103.959496
1360.340000	105.067003
1361.472000	106.145071
1362.604000	107.190606
1363.736000	108.210716
1364.868000	109.187868
1366.000000	110.147354
1367.132000	111.088805
1368.264000	112.030428
1369.396000	112.979729
1370.528000	114.034010
1371.660000	115.027186
1372.792000	115.829497
1373.924000	116.611608
1375.056000	117.288971
1376.188000	117.843927
1377.320000	118.242753
1378.452000	118.505393
1379.584000	118.560783
1380.716000	118.482862
1381.848000	118.155793
1382.980000	117.468462
1384.112000	116.505920
1385.244000	115.309179
1386.376000	113.759729
1387.508000	111.729434
1388.640000	109.361776
1389.772000	106.674881
1390.904000	103.640654
1392.036000	100.359836
1393.168000	96.850305
1394.300000	93.108928
1395.432000	89.158277
1396.564000	85.002581
1397.696000	80.715284
1398.828000	76.369261
1399.960000	72.029421
1401.092000	67.748426
1402.224000	63.588594
1403.356000	59.576835
1404.488000	55.800441
1405.620000	52.314238
1406.752000	49.314615
1407.884000	46.471140
1409.016000	43.726176
1410.148000	41.057589
1411.280000	38.772767
1412.412000	36.958096
1413.544000	35.305496
1414.676000	33.847861
1415.808000	32.583851
1416.940000	31.612928
1418.072000	30.697365
1419.204000	29.650166
1420.336000	28.623417
1421.468000	27.415582
1422.600000	26.054094
1423.732000	24.596233
1424.864000	22.772654
1425.996000	20.646048
1427.128000	18.534171
1428.260000	16.466916
1429.392000	14.634481
1430.524000	12.980419
1431.656000	11.568965
1432.788000	10.319703
1433.920000	9.416486
1435.052000	9.127665
1436.184000	9.900775
1437.316000	11.605373
1438.448000	13.600816
1439.580000	16.019196
1440.712000	20.559584
1441.844000	26.807546
1442.976000	34.535217
1444.108000	43.498526
1445.240000	53.398727
1446.372000	63.898312
1447.504000	74.911869
1448.636000	86.397920
1449.768000	98.173404
1450.900000	110.088206
1452.032000	121.914637
1453.164000	133.368458
1454.296000	144.348563
1455.428000	154.746424
1456.560000	164.268552
1457.692000	172.643459
1458.824000	179.532909
1459.956000	184.636168
1461.088000	187.631586
1462.220000	189.050250
1463.352000	189.692050
1464.484000	189.471737
1465.616000	188.395763
1466.748000	186.639331
1467.880000	183.665253
1469.012000	180.139658
1470.144000	176.184717
1471.276000	171.945802
1472.408000	167.476485
1473.540000	162.831169
1474.672000	158.159429
1475.804000	153.597371
1476.936000	149.352476
1478.068000	145.786499
1479.200000	142.542405
1480.332000	139.579640
1481.464000	136.773398
1482.596000	134.363438
1483.728000	132.130556
1484.860000	129.983960
1485.992000	127.833679
1487.124000	126.493101
1488.256000	125.420247
1489.388000	124.271260
1490.520000	123.127349
1491.652000	121.199641
1492.784000	119.215813
1493.916000	117.341983
1495.048000	115.737050
1496.180000	110.851900
1497.312000	104.372492
1498.444000	97.018255
1499.576000	89.476706
1500.708000	81.747631
1501.840000	74.515736
1502.972000	68.188888
1504.104000	64.070021
1505.236000	63.107247
1506.368000	62.200004
1507.500000	61.299445
1508.632000	62.892342
1509.764000	64.904453
1510.896000	66.857436
1512.028000	68.194574
1513.160000	66.833715
1514.292000	65.611172
1515.424000	63.787625
1516.556000	61.640031
1517.688000	57.389382
1518.820000	52.958940
1519.952000	48.568554
1521.084000	44.281680
1522.216000	40.488318
1523.348000	38.289966
1524.480000	36.147919
1525.612000	34.095824
1526.744000	32.632341
1527.876000	31.615172
1529.008000	30.485102
1530.140000	29.770452
1531.272000	29.199605
1532.404000	28.265303
1533.536000	27.308221
1534.668000	26.794225
1535.800000	26.235963
1536.932000	25.425920
1538.064000	24.656338
1539.196000	24.224397
1540.328000	23.969779
1541.460000	23.907312
1542.592000	24.021865
1543.724000	24.316460
1544.856000	24.734572
1545.988000	25.247419
1547.120000	25.857557
1548.252000	26.847666
1549.384000	27.471582
1550.516000	27.939790
1551.648000	28.327243
1552.780000	28.912839
1553.912000	29.510452
1555.044000	30.210171
1556.176000	31.030168
1557.308000	31.845846
1558.440000	32.704434
1559.572000	33.548987
1560.704000	34.417019
1561.836000	35.360945
1562.968000	36.211419
1564.100000	36.770058
1565.232000	37.939538
1566.364000	39.497173
1567.496000	39.973744
1568.628000	40.321995
1569.760000	43.779171
1570.892000	43.832931
1572.024000	43.662641
1573.156000	43.154637
1574.288000	42.796451
1575.420000	42.308338
1576.552000	41.608428
1577.684000	41.024578
1578.816000	40.146470
1579.948000	39.551928
1581.080000	38.776517
1582.212000	37.390463
1583.344000	36.462343
1584.476000	35.465643
1585.608000	32.604290
1586.740000	30.909015
1587.872000	28.997901
1589.004000	25.311057
1590.136000	22.887013
1591.268000	20.273040
1592.400000	15.947494
1593.532000	13.132702
1594.664000	10.274297
1595.796000	5.574951
1596.928000	2.773575
1598.060000	0.000000
1599.192000	0.000000
