800.000000	0.000000
801.132000	0.672880
802.264000	2.217327
803.396000	4.989363
804.528000	9.626093
805.660000	17.140546
806.792000	28.018864
807.924000	42.722432
809.056000	60.949385
810.188000	82.059059
811.320000	105.691361
812.452000	131.306777
813.584000	158.307885
814.716000	187.073571
815.848000	218.183148
816.980000	242.599181
818.112000	265.997838
819.244000	291.821959
820.376000	331.095145
821.508000	377.112620
822.640000	400.840992
823.772000	427.239178
824.904000	448.627357
826.036000	477.323819
827.168000	496.290120
828.300000	519.709174
829.432000	539.733577
830.564000	558.508938
831.696000	575.569312
832.828000	590.724789
833.960000	604.000716
835.092000	616.317233
836.224000	627.017208
837.356000	634.886631
838.488000	639.835922
839.620000	640.860968
840.752000	638.306827
841.884000	634.894786
843.016000	627.798364
844.148000	615.303849
845.280000	597.360833
846.412000	575.684717
847.544000	550.950713
848.676000	523.961021
849.808000	494.942549
850.940000	464.009450
852.072000	431.570808
853.204000	398.024051
854.336000	363.889737
855.468000	329.864707
856.600000	296.239248
857.732000	263.310057
858.864000	231.783154
859.996000	202.332815
861.128000	175.760244
862.260000	152.832619
863.392000	133.390766
864.524000	117.046716
865.656000	103.518639
866.788000	92.485949
867.920000	84.456948
869.052000	78.270935
870.184000	73.094607
871.316000	69.367340
872.448000	67.139761
873.580000	66.654429
874.712000	67.918684
875.844000	70.247434
876.976000	73.369422
878.108000	77.411513
879.240000	82.959743
880.372000	88.118125
881.504000	92.965272
882.636000	97.997327
883.768000	104.267598
884.900000	111.349609
886.032000	119.257215
887.164000	127.911598
888.296000	137.362362
889.428000	147.775172
890.560000	159.242043
891.692000	171.762240
892.824000	185.205329
893.956000	199.501715
895.088000	214.710302
896.220000	230.959714
897.352000	248.313532
898.484000	266.903346
899.616000	286.478574
900.748000	306.773766
901.880000	327.506733
903.012000	348.432535
904.144000	369.308174
905.276000	390.018017
906.408000	410.238866
907.540000	429.739120
908.672000	448.340605
909.804000	465.943448
910.936000	482.457363
912.068000	497.896115
913.200000	511.986287
914.332000	524.514366
915.464000	535.251272
916.596000	543.525412
917.728000	550.107387
918.860000	554.206354
919.992000	556.662629
921.124000	558.096061
922.256000	558.918291
923.388000	557.173120
924.520000	553.492802
925.652000	548.597080
926.784000	542.383390
927.916000	534.676058
929.048000	524.647090
930.180000	513.463970
931.312000	501.201681
932.444000	487.672134
933.576000	471.693419
934.708000	453.901219
935.840000	434.507945
936.972000	413.780205
938.104000	392.031046
939.236000	369.609936
940.368000	346.673365
941.500000	323.327020
942.632000	299.786097
943.764000	276.240072
944.896000	252.956510
946.028000	230.233074
947.160000	208.261158
948.292000	187.203451
949.424000	167.388160
950.556000	149.085891
951.688000	132.630724
952.820000	118.296268
953.952000	106.130397
955.084000	96.032442
956.216000	88.004115
957.348000	82.421987
958.480000	79.693134
959.612000	77.500514
960.744000	75.900807
961.876000	76.705937
963.008000	79.763810
964.140000	83.731569
965.272000	89.009082
966.404000	96.187037
967.536000	104.806390
968.668000	114.817581
969.800000	126.303209
970.932000	139.264016
972.064000	153.515741
973.196000	168.661399
974.328000	184.679768
975.460000	201.371315
976.592000	218.570982
977.724000	236.114363
978.856000	253.570190
979.988000	270.398546
981.120000	287.053069
982.252000	303.888309
983.384000	321.521279
984.516000	340.564995
985.648000	360.650490
986.780000	380.946533
987.912000	401.665739
989.044000	422.655585
990.176000	443.892166
991.308000	465.730552
992.440000	486.816045
993.572000	504.395095
994.704000	523.098657
995.836000	546.694494
996.968000	568.666866
998.100000	595.936868
999.232000	636.561733
1000.364000	670.169937
1001.496000	699.522755
1002.628000	731.489861
1003.760000	748.775319
1004.892000	751.157053
1006.024000	751.510126
1007.156000	753.026600
1008.288000	724.758166
1009.420000	687.089632
1010.552000	643.562773
1011.684000	598.156093
1012.816000	554.970426
1013.948000	516.505703
1015.080000	499.836178
1016.212000	486.579684
1017.344000	475.020893
1018.476000	476.404668
1019.608000	489.777104
1020.740000	504.701927
1021.872000	521.422809
1023.004000	546.633748
1024.136000	568.167691
1025.268000	585.538583
1026.400000	611.180214
1027.532000	637.483559
1028.664000	658.235995
1029.796000	678.293513
1030.928000	690.530557
1032.060000	687.747384
1033.192000	679.917140
1034.324000	669.852115
1035.456000	651.118739
1036.588000	612.840618
1037.720000	568.480871
1038.852000	520.328246
1039.984000	472.278503
1041.116000	427.036230
1042.248000	389.690102
1043.380000	367.609583
1044.512000	360.885801
1045.644000	353.346152
1046.776000	345.427395
1047.908000	346.511226
1049.040000	349.126337
1050.172000	349.589442
1051.304000	345.214599
1052.436000	338.065783
1053.568000	331.045831
1054.700000	317.971052
1055.832000	302.219171
1056.964000	287.324144
1058.096000	274.182167
1059.228000	263.534405
1060.360000	256.609448
1061.492000	254.747334
1062.624000	254.484255
1063.756000	257.432966
1064.888000	261.438286
1066.020000	268.620632
1067.152000	276.886768
1068.284000	286.218119
1069.416000	296.240078
1070.548000	306.231738
1071.680000	316.334499
1072.812000	326.701162
1073.944000	337.187863
1075.076000	347.846454
1076.208000	359.103353
1077.340000	369.722659
1078.472000	379.668145
1079.604000	388.350485
1080.736000	396.211320
1081.868000	403.311326
1083.000000	408.836600
1084.132000	412.044090
1085.264000	416.117441
1086.396000	420.809768
1087.528000	425.129713
1088.660000	429.115514
1089.792000	435.918171
1090.924000	441.193807
1092.056000	450.077292
1093.188000	466.474108
1094.320000	482.088946
1095.452000	484.023290
1096.584000	485.580660
1097.716000	486.553214
1098.848000	447.281255
1099.980000	418.667987
1101.112000	419.342052
1102.244000	419.267978
1103.376000	418.739019
1104.508000	459.967192
1105.640000	458.629469
1106.772000	456.017452
1107.904000	453.005106
1109.036000	449.644645
1110.168000	424.237792
1111.300000	410.551700
1112.432000	404.030356
1113.564000	397.859335
1114.696000	391.111178
1115.828000	382.689586
1116.960000	373.180420
1118.092000	363.563370
1119.224000	354.620596
1120.356000	345.144577
1121.488000	334.534343
1122.620000	324.994406
1123.752000	316.576567
1124.884000	305.843412
1126.016000	294.952741
1127.148000	277.768670
1128.280000	265.985523
1129.412000	254.613294
1130.544000	242.345129
1131.676000	229.529091
1132.808000	216.510547
1133.940000	202.909932
1135.072000	189.493737
1136.204000	175.999119
1137.336000	162.704508
1138.468000	149.620134
1139.600000	136.953625
1140.732000	124.765909
1141.864000	113.307558
1142.996000	102.718846
1144.128000	93.081743
1145.260000	84.345544
1146.392000	76.523531
1147.524000	69.506779
1148.656000	63.732589
1149.788000	58.826770
1150.920000	55.936150
1152.052000	53.545837
1153.184000	51.705916
1154.316000	51.232982
1155.448000	52.467163
1156.580000	54.556852
1157.712000	57.693583
1158.844000	62.317682
1159.976000	67.782028
1161.108000	73.810063
1162.240000	80.654846
1163.372000	89.210724
1164.504000	98.777608
1165.636000	109.357305
1166.768000	121.028240
1167.900000	135.025879
1169.032000	150.973770
1170.164000	169.018487
1171.296000	188.947145
1172.428000	210.359704
1173.560000	232.801511
1174.692000	255.652243
1175.824000	278.884983
1176.956000	302.438378
1178.088000	326.211717
1179.220000	350.022260
1180.352000	373.439628
1181.484000	395.777506
1182.616000	416.805544
1183.748000	436.169368
1184.880000	453.365700
1186.012000	467.913682
1187.144000	479.161796
1188.276000	484.854501
1189.408000	487.565359
1190.540000	488.774389
1191.672000	486.959434
1192.804000	483.579011
1193.936000	477.904689
1195.068000	469.356995
1196.200000	459.431866
1197.332000	448.384231
1198.464000	436.165119
1199.596000	423.389387
1200.728000	410.244814
1201.860000	396.824749
1202.992000	383.682575
1204.124000	371.235119
1205.256000	360.107725
1206.388000	350.800926
1207.520000	343.321864
1208.652000	337.438509
1209.784000	332.093831
1210.916000	327.038099
1212.048000	322.965135
1213.180000	319.413193
1214.312000	316.187528
1215.444000	313.024718
1216.576000	309.790697
1217.708000	306.206207
1218.840000	302.313817
1219.972000	297.654002
1221.104000	292.423005
1222.236000	286.721857
1223.368000	280.387407
1224.500000	271.704417
1225.632000	261.659660
1226.764000	250.589339
1227.896000	238.871278
1229.028000	226.866718
1230.160000	214.794746
1231.292000	202.702921
1232.424000	190.938465
1233.556000	179.733471
1234.688000	169.339540
1235.820000	159.950514
1236.952000	151.661574
1238.084000	144.455607
1239.216000	139.306113
1240.348000	136.586496
1241.480000	135.080047
1242.612000	134.766823
1243.744000	136.972134
1244.876000	140.948771
1246.008000	147.336464
1247.140000	155.104786
1248.272000	164.463239
1249.404000	175.022497
1250.536000	186.531738
1251.668000	198.650011
1252.800000	211.339831
1253.932000	224.491324
1255.064000	238.140166
1256.196000	252.253558
1257.328000	266.685659
1258.460000	281.165212
1259.592000	295.570498
1260.724000	309.684717
1261.856000	323.506419
1262.988000	337.003080
1264.120000	350.152221
1265.252000	362.857800
1266.384000	375.172863
1267.516000	387.049366
1268.648000	398.575552
1269.780000	409.757507
1270.912000	420.539698
1272.044000	430.741035
1273.176000	440.310558
1274.308000	449.099939
1275.440000	457.074709
1276.572000	464.146928
1277.704000	470.266299
1278.836000	474.419133
1279.968000	478.067498
1281.100000	481.526379
1282.232000	484.310384
1283.364000	485.366216
1284.496000	485.524751
1285.628000	484.577453
1286.760000	482.907814
1287.892000	480.563333
1289.024000	477.305230
1290.156000	472.888391
1291.288000	468.153522
1292.420000	463.072639
1293.552000	456.807534
1294.684000	449.859494
1295.816000	442.306576
1296.948000	434.157267
1298.080000	425.497226
1299.212000	416.336137
1300.344000	406.773228
1301.476000	396.837955
1302.608000	386.608216
1303.740000	376.091437
1304.872000	365.366664
1306.004000	354.442125
1307.136000	343.425077
1308.268000	332.365507
1309.400000	321.362301
1310.532000	310.449243
1311.664000	299.735914
1312.796000	289.258452
1313.928000	279.129710
1315.060000	269.394600
1316.192000	260.117870
1317.324000	251.287058
1318.456000	242.956167
1319.588000	235.234292
1320.720000	227.969181
1321.852000	221.160329
1322.984000	214.841318
1324.116000	209.211412
1325.248000	204.192459
1326.380000	199.776351
1327.512000	196.011656
1328.644000	192.888851
1329.776000	190.586621
1330.908000	188.821680
1332.040000	187.981744
1333.172000	187.955679
1334.304000	188.108705
1335.436000	188.331658
1336.568000	189.991411
1337.700000	192.251005
1338.832000	195.089751
1339.964000	198.641458
1341.096000	202.939849
1342.228000	207.718921
1343.360000	212.977920
1344.492000	218.744983
1345.624000	225.176469
1346.756000	232.116134
1347.888000	239.577105
1349.020000	247.520838
1350.152000	255.961703
1351.284000	264.868936
1352.416000	274.198467
1353.548000	283.848964
1354.680000	293.770332
1355.812000	303.865089
1356.944000	314.084064
1358.076000	324.349735
1359.208000	334.596074
1360.340000	344.723138
1361.472000	354.699537
1362.604000	364.463045
1363.736000	373.994188
1364.868000	383.246836
1366.000000	392.168706
1367.132000	400.671030
1368.264000	407.829874
1369.396000	414.967588
1370.528000	422.252571
1371.660000	429.539263
1372.792000	435.268490
1373.924000	440.303428
1375.056000	444.652630
1376.188000	448.300452
1377.320000	451.267822
1378.452000	453.559039
1379.584000	455.124422
1380.716000	455.874650
1381.848000	455.127665
1382.980000	453.634757
1384.112000	451.925697
1385.244000	449.230008
1386.376000	445.151829
1387.508000	440.633308
1388.640000	434.987071
1389.772000	428.024922
1390.904000	420.185542
1392.036000	411.743517
1393.168000	402.452794
1394.300000	392.279126
1395.432000	381.363491
1396.564000	370.016398
1397.696000	358.157352
1398.828000	345.783907
1399.960000	333.176078
1401.092000	320.410898
1402.224000	307.576952
1403.356000	294.578066
1404.488000	281.623464
1405.620000	268.816368
1406.752000	256.198172
1407.884000	243.821230
1409.016000	231.671322
1410.148000	219.741614
1411.280000	208.109093
1412.412000	196.866798
1413.544000	186.094826
1414.676000	175.894587
1415.808000	166.420500
1416.940000	158.023804
1418.072000	148.915603
1419.204000	139.930215
1420.336000	132.761704
1421.468000	124.479720
1422.600000	112.865591
1423.732000	103.233774
1424.864000	97.087178
1425.996000	89.977227
1427.128000	85.876632
1428.260000	79.044459
1429.392000	76.394341
1430.524000	71.181126
1431.656000	68.349736
1432.788000	65.064377
1433.920000	62.978187
1435.052000	61.896347
1436.184000	62.313034
1437.316000	63.632445
1438.448000	67.004503
1439.580000	71.597748
1440.712000	78.091318
1441.844000	87.169257
1442.976000	98.594124
1444.108000	111.835102
1445.240000	126.489538
1446.372000	142.123576
1447.504000	158.609950
1448.636000	175.926707
1449.768000	193.849505
1450.900000	212.215610
1452.032000	230.674350
1453.164000	248.820067
1454.296000	266.455541
1455.428000	283.418708
1456.560000	299.264649
1457.692000	313.648713
1458.824000	326.062811
1459.956000	336.069615
1461.088000	343.796206
1462.220000	348.996516
1463.352000	352.736255
1464.484000	355.183725
1465.616000	357.279401
1466.748000	358.137050
1467.880000	357.558112
1469.012000	356.149448
1470.144000	354.149591
1471.276000	351.771983
1472.408000	349.042649
1473.540000	345.761818
1474.672000	342.661915
1475.804000	339.996961
1476.936000	338.204825
1478.068000	337.129913
1479.200000	336.250604
1480.332000	335.699366
1481.464000	335.915371
1482.596000	336.209864
1483.728000	336.476324
1484.860000	336.672721
1485.992000	336.579838
1487.124000	335.993684
1488.256000	334.466950
1489.388000	332.494386
1490.520000	330.233421
1491.652000	327.570921
1492.784000	324.317060
1493.916000	319.883479
1495.048000	314.412277
1496.180000	307.740889
1497.312000	299.973875
1498.444000	291.326687
1499.576000	281.889934
1500.708000	271.848637
1501.840000	261.301280
1502.972000	250.348032
1504.104000	239.217608
1505.236000	228.147289
1506.368000	217.130105
1507.500000	206.144718
1508.632000	195.181536
1509.764000	184.127837
1510.896000	173.089629
1512.028000	162.234907
1513.160000	151.560282
1514.292000	141.218478
1515.424000	131.169487
1516.556000	121.427071
1517.688000	112.330773
1518.820000	103.965976
1519.952000	95.285110
1521.084000	87.579812
1522.216000	80.173697
1523.348000	70.321977
1524.480000	60.516806
1525.612000	53.822308
1526.744000	48.100585
1527.876000	39.094708
1529.008000	35.338231
1530.140000	31.537599
1531.272000	29.757199
1532.404000	26.352429
1533.536000	25.819845
1534.668000	25.784882
1535.800000	26.113048
1536.932000	26.945934
1538.064000	28.368132
1539.196000	30.626063
1540.328000	33.271556
1541.460000	36.378488
1542.592000	39.887206
1543.724000	43.321195
1544.856000	46.628742
1545.988000	49.774079
1547.120000	52.497739
1548.252000	54.312780
1549.384000	54.158808
1550.516000	53.783643
1551.648000	53.503201
1552.780000	52.274764
1553.912000	49.532339
1555.044000	46.212033
1556.176000	42.494148
1557.308000	38.549653
1558.440000	34.477557
1559.572000	30.422667
1560.704000	26.507486
1561.836000	22.853403
1562.968000	19.454333
1564.100000	16.359256
1565.232000	13.504322
1566.364000	11.393918
1567.496000	10.031895
1568.628000	9.282698
1569.760000	8.417130
1570.892000	7.448829
1572.024000	6.456550
1573.156000	5.550279
1574.288000	4.864698
1575.420000	4.515943
1576.552000	4.517041
1577.684000	4.712008
1578.816000	5.145576
1579.948000	5.749465
1581.080000	6.572263
1582.212000	7.531441
1583.344000	8.530205
1584.476000	9.405145
1585.608000	9.621921
1586.740000	9.621921
1587.872000	9.621921
1589.004000	9.120686
1590.136000	8.068996
1591.268000	6.952547
1592.400000	5.697450
1593.532000	4.334781
1594.664000	2.991155
1595.796000	1.526942
1596.928000	0.670845
1598.060000	0.000000
1599.192000	0.000000
