800.000000	0.000000
801.132000	0.605754
802.264000	1.636588
803.396000	3.080793
804.528000	5.028816
805.660000	7.760627
806.792000	11.835708
807.924000	17.443424
809.056000	24.475691
810.188000	32.691877
811.320000	42.096399
812.452000	52.650951
813.584000	64.085640
814.716000	76.194233
815.848000	88.641009
816.980000	100.992564
818.112000	113.365697
819.244000	126.180025
820.376000	139.600971
821.508000	153.876230
822.640000	169.043567
823.772000	185.028330
824.904000	202.064736
826.036000	220.316840
827.168000	239.514392
828.300000	259.338640
829.432000	279.229114
830.564000	298.562791
831.696000	317.358581
832.828000	335.709740
833.960000	353.576973
835.092000	370.940980
836.224000	387.236551
837.356000	401.672988
838.488000	413.932408
839.620000	423.628367
840.752000	426.178538
841.884000	426.178538
843.016000	426.178538
844.148000	424.601766
845.280000	413.067198
846.412000	397.486181
847.544000	378.582069
848.676000	357.274491
849.808000	333.811004
850.940000	308.311726
852.072000	281.294292
853.204000	253.255695
854.336000	224.723167
855.468000	196.345023
856.600000	168.333822
857.732000	140.916196
858.864000	114.851223
859.996000	90.849792
861.128000	69.744841
862.260000	52.326113
863.392000	38.411687
864.524000	27.491093
865.656000	19.210576
866.788000	13.095999
867.920000	9.166941
869.052000	7.156912
870.184000	5.702321
871.316000	4.645822
872.448000	4.427930
873.580000	5.157070
874.712000	6.477085
875.844000	8.490837
876.976000	11.109160
878.108000	13.751419
879.240000	16.111369
880.372000	17.989881
881.504000	19.384238
882.636000	20.518455
883.768000	21.539766
884.900000	22.628191
886.032000	23.864417
887.164000	25.276526
888.296000	27.047472
889.428000	29.331534
890.560000	32.178103
891.692000	35.640042
892.824000	39.672219
893.956000	44.210016
895.088000	49.375454
896.220000	55.285400
897.352000	62.066880
898.484000	69.843213
899.616000	78.478713
900.748000	87.763160
901.880000	97.500635
903.012000	107.467031
904.144000	117.557239
905.276000	127.700202
906.408000	137.735776
907.540000	147.520269
908.672000	156.899548
909.804000	165.684874
910.936000	173.806216
912.068000	181.201843
913.200000	187.665962
914.332000	193.019254
915.464000	196.614513
916.596000	198.420816
917.728000	199.404249
918.860000	199.776500
919.992000	198.495779
921.124000	196.146724
922.256000	192.877378
923.388000	188.790819
924.520000	183.814665
925.652000	178.227270
926.784000	172.136530
927.916000	165.641870
929.048000	158.786599
930.180000	151.569903
931.312000	144.177813
932.444000	136.761645
933.576000	129.538921
934.708000	122.681739
935.840000	116.172329
936.972000	109.893890
938.104000	103.810657
939.236000	97.817212
940.368000	91.960107
941.500000	86.292317
942.632000	80.767483
943.764000	75.325951
944.896000	70.037671
946.028000	64.900452
947.160000	60.145136
948.292000	55.955738
949.424000	52.206196
950.556000	48.728409
951.688000	45.368087
952.820000	41.899374
953.952000	39.029201
955.084000	36.468139
956.216000	35.219810
957.348000	34.504281
958.480000	34.483895
959.612000	35.099376
960.744000	38.561188
961.876000	44.238242
963.008000	51.435680
964.140000	59.704633
965.272000	68.913161
966.404000	77.728425
967.536000	86.498045
968.668000	95.566549
969.800000	105.339604
970.932000	116.443496
972.064000	127.826547
973.196000	137.956010
974.328000	146.830420
975.460000	154.685155
976.592000	161.646338
977.724000	167.377790
978.856000	170.352123
979.988000	169.580395
981.120000	168.638311
982.252000	168.627066
983.384000	176.442058
984.516000	194.320854
985.648000	219.775264
986.780000	240.146599
987.912000	264.553268
989.044000	292.036940
990.176000	319.427612
991.308000	337.142445
992.440000	347.648391
993.572000	325.678770
994.704000	345.506421
995.836000	348.585814
996.968000	356.833566
998.100000	478.069197
999.232000	758.360094
1000.364000	1037.346018
1001.496000	1114.164695
1002.628000	1114.164695
1003.760000	1114.164695
1004.892000	1089.248869
1006.024000	730.442019
1007.156000	552.889660
1008.288000	378.427884
1009.420000	252.500409
1010.552000	144.480181
1011.684000	112.293730
1012.816000	99.166168
1013.948000	93.674356
1015.080000	92.423660
1016.212000	93.972580
1017.344000	99.778556
1018.476000	105.596616
1019.608000	115.238657
1020.740000	157.522347
1021.872000	240.075731
1023.004000	334.049514
1024.136000	421.684964
1025.268000	485.961952
1026.400000	529.340251
1027.532000	557.041807
1028.664000	583.957216
1029.796000	623.372329
1030.928000	631.386245
1032.060000	631.386245
1033.192000	631.386245
1034.324000	614.473044
1035.456000	502.334659
1036.588000	375.714468
1037.720000	279.827590
1038.852000	258.429975
1039.984000	237.219810
1041.116000	208.473020
1042.248000	191.240375
1043.380000	184.604129
1044.512000	184.604129
1045.644000	152.123079
1046.776000	152.123079
1047.908000	156.247764
1049.040000	161.625500
1050.172000	168.611048
1051.304000	169.853427
1052.436000	169.853427
1053.568000	169.853427
1054.700000	163.581599
1055.832000	146.652696
1056.964000	131.432823
1058.096000	118.330925
1059.228000	105.959326
1060.360000	95.803130
1061.492000	89.773064
1062.624000	87.430502
1063.756000	86.191524
1064.888000	85.214321
1066.020000	85.270952
1067.152000	85.768461
1068.284000	86.513982
1069.416000	87.084861
1070.548000	87.123238
1071.680000	86.836247
1072.812000	86.328132
1073.944000	85.852490
1075.076000	85.662509
1076.208000	85.711496
1077.340000	86.255085
1078.472000	87.399960
1079.604000	88.564341
1080.736000	89.838151
1081.868000	91.758360
1083.000000	93.859421
1084.132000	95.941512
1085.264000	98.072339
1086.396000	100.290248
1087.528000	102.641181
1088.660000	105.158379
1089.792000	107.725121
1090.924000	110.111207
1092.056000	112.245545
1093.188000	113.774071
1094.320000	114.775757
1095.452000	115.310262
1096.584000	115.620521
1097.716000	114.831712
1098.848000	112.892153
1099.980000	110.282235
1101.112000	107.232946
1102.244000	103.914190
1103.376000	100.244643
1104.508000	96.257521
1105.640000	92.026829
1106.772000	87.568691
1107.904000	83.068681
1109.036000	78.768074
1110.168000	74.754656
1111.300000	71.113730
1112.432000	68.077486
1113.564000	66.271879
1114.696000	65.376381
1115.828000	65.330600
1116.960000	66.341334
1118.092000	68.386097
1119.224000	70.893853
1120.356000	74.034212
1121.488000	77.638996
1122.620000	81.568677
1123.752000	85.696466
1124.884000	89.859769
1126.016000	94.056013
1127.148000	97.328089
1128.280000	100.116800
1129.412000	102.039840
1130.544000	104.438255
1131.676000	104.438255
1132.808000	105.511048
1133.940000	104.928866
1135.072000	102.924097
1136.204000	100.718629
1137.336000	96.765142
1138.468000	91.565100
1139.600000	86.694460
1140.732000	81.478152
1141.864000	75.962212
1142.996000	70.424081
1144.128000	64.692927
1145.260000	59.173166
1146.392000	53.769206
1147.524000	48.425901
1148.656000	43.304464
1149.788000	38.595199
1150.920000	34.419398
1152.052000	30.907580
1153.184000	28.159718
1154.316000	25.820792
1155.448000	23.928330
1156.580000	22.930363
1157.712000	22.278985
1158.844000	21.891462
1159.976000	21.673330
1161.108000	21.780822
1162.240000	22.088032
1163.372000	22.807403
1164.504000	24.144802
1165.636000	25.823369
1166.768000	27.834014
1167.900000	30.559508
1169.032000	34.133578
1170.164000	38.520668
1171.296000	43.640601
1172.428000	49.362312
1173.560000	55.495040
1174.692000	61.826835
1175.824000	68.341077
1176.956000	75.044046
1178.088000	81.892780
1179.220000	88.851926
1180.352000	95.747533
1181.484000	102.348756
1182.616000	108.549736
1183.748000	114.239993
1184.880000	119.211640
1186.012000	123.130477
1187.144000	126.041603
1188.276000	127.029185
1189.408000	126.827269
1190.540000	126.427337
1191.672000	125.666193
1192.804000	123.300370
1193.936000	120.279463
1195.068000	116.649136
1196.200000	112.550841
1197.332000	108.120043
1198.464000	103.464949
1199.596000	98.714777
1200.728000	93.901363
1201.860000	89.047156
1202.992000	84.329096
1204.124000	79.918905
1205.256000	76.178133
1206.388000	73.046447
1207.520000	70.372050
1208.652000	68.071520
1209.784000	66.404226
1210.916000	65.066613
1212.048000	63.993466
1213.180000	63.178541
1214.312000	62.501795
1215.444000	61.878104
1216.576000	61.269678
1217.708000	60.672593
1218.840000	60.099476
1219.972000	59.606950
1221.104000	59.103332
1222.236000	58.527249
1223.368000	57.793125
1224.500000	56.803892
1225.632000	55.659279
1226.764000	54.457866
1227.896000	53.209003
1229.028000	51.892742
1230.160000	50.593095
1231.292000	49.368231
1232.424000	48.268036
1233.556000	47.432868
1234.688000	46.747353
1235.820000	46.236387
1236.952000	45.917757
1238.084000	45.919221
1239.216000	45.978333
1240.348000	46.221731
1241.480000	46.573012
1242.612000	47.202107
1243.744000	48.089139
1244.876000	49.252776
1246.008000	50.639526
1247.140000	52.266614
1248.272000	54.087608
1249.404000	56.087044
1250.536000	58.211089
1251.668000	60.496331
1252.800000	62.837158
1253.932000	65.260185
1255.064000	67.794083
1256.196000	69.504318
1257.328000	72.738055
1258.460000	76.887047
1259.592000	79.403416
1260.724000	82.515496
1261.856000	89.759214
1262.988000	93.212405
1264.120000	96.838503
1265.252000	101.617516
1266.384000	105.406428
1267.516000	109.480455
1268.648000	113.346756
1269.780000	117.200925
1270.912000	121.080817
1272.044000	124.703541
1273.176000	128.363205
1274.308000	131.676737
1275.440000	134.601729
1276.572000	137.176362
1277.704000	139.301616
1278.836000	139.594174
1279.968000	140.188503
1281.100000	141.003754
1282.232000	141.464693
1283.364000	142.962242
1284.496000	142.469046
1285.628000	141.794741
1286.760000	140.978328
1287.892000	139.840426
1289.024000	138.460193
1290.156000	136.812554
1291.288000	135.063943
1292.420000	133.244164
1293.552000	131.297093
1294.684000	129.309204
1295.816000	127.318735
1296.948000	125.487083
1298.080000	123.739241
1299.212000	122.061467
1300.344000	120.447011
1301.476000	118.820675
1302.608000	117.120367
1303.740000	115.361299
1304.872000	113.623783
1306.004000	111.832027
1307.136000	109.968834
1308.268000	108.028544
1309.400000	105.948776
1310.532000	103.801968
1311.664000	101.667948
1312.796000	99.539342
1313.928000	97.141343
1315.060000	94.590995
1316.192000	91.897463
1317.324000	89.310229
1318.456000	86.531684
1319.588000	83.665965
1320.720000	80.821781
1321.852000	78.170657
1322.984000	75.636237
1324.116000	73.305644
1325.248000	71.162899
1326.380000	69.249005
1327.512000	67.547922
1328.644000	66.097172
1329.776000	64.894121
1330.908000	64.204451
1332.040000	63.862523
1333.172000	63.766942
1334.304000	63.694476
1335.436000	63.922273
1336.568000	64.614401
1337.700000	65.830722
1338.832000	67.396818
1339.964000	69.336039
1341.096000	71.606772
1342.228000	74.226131
1343.360000	77.165438
1344.492000	80.478940
1345.624000	84.152307
1346.756000	88.108634
1347.888000	92.326160
1349.020000	96.958933
1350.152000	101.913647
1351.284000	107.221375
1352.416000	112.823170
1353.548000	118.705546
1354.680000	124.815721
1355.812000	131.157379
1356.944000	137.649513
1358.076000	144.276682
1359.208000	150.947960
1360.340000	157.631187
1361.472000	164.292442
1362.604000	170.973973
1363.736000	177.637307
1364.868000	184.310032
1366.000000	190.948881
1367.132000	197.554538
1368.264000	204.103211
1369.396000	210.623393
1370.528000	217.028142
1371.660000	223.280668
1372.792000	229.270213
1373.924000	234.934975
1375.056000	240.221804
1376.188000	245.038776
1377.320000	249.537627
1378.452000	253.699044
1379.584000	257.102533
1380.716000	260.034337
1381.848000	262.244124
1382.980000	263.859779
1384.112000	264.840252
1385.244000	265.266491
1386.376000	263.757936
1387.508000	261.892777
1388.640000	259.671739
1389.772000	256.568878
1390.904000	252.260414
1392.036000	247.251566
1393.168000	241.584371
1394.300000	235.330528
1395.432000	228.562378
1396.564000	221.395033
1397.696000	213.844347
1398.828000	205.953162
1399.960000	197.731359
1401.092000	189.224924
1402.224000	180.463825
1403.356000	171.537232
1404.488000	162.465877
1405.620000	153.320457
1406.752000	144.138290
1407.884000	135.005300
1409.016000	125.958599
1410.148000	117.088562
1411.280000	108.416571
1412.412000	100.004461
1413.544000	91.888777
1414.676000	84.147141
1415.808000	76.784996
1416.940000	69.856539
1418.072000	63.348957
1419.204000	57.289468
1420.336000	51.715776
1421.468000	46.720353
1422.600000	42.317293
1423.732000	38.579996
1424.864000	35.829113
1425.996000	33.800968
1427.128000	31.892910
1428.260000	30.549247
1429.392000	29.758945
1430.524000	29.782740
1431.656000	30.341563
1432.788000	31.254747
1433.920000	32.526075
1435.052000	34.510257
1436.184000	37.157712
1437.316000	40.837632
1438.448000	45.326820
1439.580000	50.298022
1440.712000	55.757545
1441.844000	62.750688
1442.976000	70.638139
1444.108000	79.290929
1445.240000	88.442035
1446.372000	97.849682
1447.504000	107.442280
1448.636000	117.242518
1449.768000	127.156732
1450.900000	137.150219
1452.032000	146.981011
1453.164000	156.370736
1454.296000	165.175292
1455.428000	173.283746
1456.560000	180.410190
1457.692000	186.363328
1458.824000	190.805198
1459.956000	192.538345
1461.088000	192.538345
1462.220000	192.538345
1463.352000	192.327319
1464.484000	189.696526
1465.616000	186.196618
1466.748000	181.874890
1467.880000	176.900095
1469.012000	171.459244
1470.144000	165.669478
1471.276000	159.709435
1472.408000	153.587302
1473.540000	147.332146
1474.672000	141.158862
1475.804000	135.313504
1476.936000	130.009510
1478.068000	125.499811
1479.200000	121.698214
1480.332000	118.459068
1481.464000	115.811292
1482.596000	113.415324
1483.728000	111.205726
1484.860000	109.275213
1485.992000	107.469573
1487.124000	105.599270
1488.256000	103.681221
1489.388000	101.726525
1490.520000	99.794440
1491.652000	97.955836
1492.784000	96.140864
1493.916000	94.251524
1495.048000	92.168510
1496.180000	89.978924
1497.312000	87.697373
1498.444000	85.268110
1499.576000	82.762024
1500.708000	80.183303
1501.840000	77.625703
1502.972000	75.127349
1504.104000	72.781289
1505.236000	70.697896
1506.368000	68.834965
1507.500000	67.098897
1508.632000	65.401659
1509.764000	63.657397
1510.896000	61.839373
1512.028000	59.974682
1513.160000	58.098968
1514.292000	56.018405
1515.424000	53.753927
1516.556000	51.471752
1517.688000	49.242420
1518.820000	47.152504
1519.952000	45.151717
1521.084000	43.520320
1522.216000	41.549306
1523.348000	39.390804
1524.480000	37.717351
1525.612000	36.230305
1526.744000	34.913908
1527.876000	35.173165
1529.008000	33.909948
1530.140000	33.798315
1531.272000	34.247164
1532.404000	32.272766
1533.536000	33.841514
1534.668000	35.841155
1535.800000	38.080491
1536.932000	40.658066
1538.064000	43.557284
1539.196000	46.683856
1540.328000	49.946318
1541.460000	53.252579
1542.592000	56.523527
1543.724000	59.547553
1544.856000	62.307354
1545.988000	64.580159
1547.120000	66.283258
1548.252000	66.085668
1549.384000	65.223433
1550.516000	63.814493
1551.648000	61.913488
1552.780000	57.759958
1553.912000	52.867105
1555.044000	47.590179
1556.176000	42.039657
1557.308000	36.288656
1558.440000	30.847793
1559.572000	26.074914
1560.704000	21.864474
1561.836000	18.248176
1562.968000	15.069107
1564.100000	12.061318
1565.232000	9.661527
1566.364000	8.030432
1567.496000	7.051510
1568.628000	6.858926
1569.760000	6.824959
1570.892000	6.739405
1572.024000	7.317456
1573.156000	8.683018
1574.288000	9.487647
1575.420000	9.487647
1576.552000	9.487647
1577.684000	8.857004
1578.816000	7.027077
1579.948000	4.715161
1581.080000	2.467007
1582.212000	0.923497
1583.344000	0.705571
1584.476000	0.998296
1585.608000	1.297374
1586.740000	1.624321
1587.872000	5.442897
1589.004000	11.403676
1590.136000	18.009464
1591.268000	25.950618
1592.400000	28.545826
1593.532000	28.340841
1594.664000	28.072305
1595.796000	27.599304
1596.928000	16.275959
1598.060000	0.000000
1599.192000	0.000000
